,Unnamed: 0,TripId,TripId_raw,VehId,Aggressiveness,Distance[km],Fuel Consumed[L],Fuel Rate[gpm],Weight,Displacement
0,0,0,918,392,4492.834692549465,4.012388888888888,0.4159797590092292,0.0440790131100361,4500,3.5
1,1,1,1736,450,4620.973845765705,2.97275,0.1158265458728672,0.0165657994746022,3500,1.8
2,2,2,854,418,6394.647968865589,2.5909166666666663,0.1337826539617685,0.021953766718003,3000,1.8
3,3,3,1240,468,6054.3796297617855,5.838583333333333,0.3179313349025238,0.0231520010199656,3500,1.8
4,4,4,2320,565,4832.069296161308,11.21113888888889,0.4548971787020535,0.0172514734079176,2500,1.3
6,6,6,1175,201,6217.934981814081,7.881555555555556,0.3825357719555158,0.0206358705510265,2500,1.5
7,7,7,4068,347,4532.232325106699,2.993888888888889,0.2435878595654702,0.0345925552569487,4000,3.3
8,8,8,2358,349,4389.613443639151,17.718416666666666,1.061580773719827,0.0254736288388543,3500,2.5
9,9,9,3265,125,5906.293169608594,1.447777777777778,0.1127672012948757,0.0331164349817363,3500,2.4
10,10,10,3131,347,5189.347501619277,5.918277777777778,0.4594762490314583,0.0330088507827602,4000,3.3
11,11,11,1000,349,3697.8810739785104,19.787277777777778,0.9368063134657514,0.0201291965725507,3500,2.5
12,12,12,1377,353,4429.943108992377,3.7059166666666665,0.1932716354039747,0.0221735461867117,3000,1.8
13,13,13,872,474,6409.282860947308,2.1904166666666667,0.1323547502710799,0.0256906729358095,3000,1.5
14,14,14,2216,468,5763.372511827755,7.673805555555555,0.3907311871760527,0.0216486076209899,3500,1.8
15,15,15,1100,475,4042.097436623708,3.138222222222222,0.1477112493708147,0.0200120952234231,3000,1.5
16,16,16,1137,374,3957.189324694698,6.293861111111111,0.3254785389109749,0.0219870966465839,4000,2.0
17,17,17,675,397,4177.740515615175,1.5903333333333334,0.0551452499692645,0.0147428901786688,3000,1.8
18,18,18,1020,450,5584.830081405866,2.5796666666666668,0.1436555918125729,0.0236767248004035,3500,1.8
19,19,19,2093,475,4281.334596643205,9.850666666666667,0.4126326926347462,0.0178098676906232,3000,1.5
20,20,20,1136,452,4694.408943778889,4.6512777777777785,0.2265826808635654,0.020711765333993,3000,1.5
21,21,21,1508,351,8758.015815959741,1.3523611111111111,0.0884920663028291,0.0278211030624283,3000,1.8
22,22,22,1093,450,4687.015983731785,15.818166666666666,0.9318092604135748,0.0250457221109752,3500,1.8
23,23,23,1372,375,6108.025633201098,1.0013055555555557,0.100163437409779,0.0425309689545532,4500,3.3
24,24,24,1278,374,3543.761754796323,7.576694444444445,0.2834530039608268,0.0159061096973376,4000,2.0
25,25,25,2503,410,3869.492117923193,6.674777777777778,0.3604970729934642,0.0229629465056543,3500,2.5
26,26,26,1026,124,6870.378425402348,1.021777777777778,0.0636390483158967,0.0264807271112343,3000,1.8
27,27,27,2239,351,4876.054505444501,7.813694444444444,0.4114888776395414,0.0223905292614604,3000,1.8
28,28,28,1097,351,4254.834402859727,2.579888888888889,0.1269573689063598,0.0209227898949246,3000,1.8
29,29,29,2845,125,4582.114557391895,1.8404166666666664,0.1450073621480514,0.0334993651957075,3500,2.4
30,30,30,999,220,3298.301350208808,6.505166666666668,0.2735683655005672,0.0178801076943919,3000,1.8
31,31,31,631,452,4481.763465760757,5.085944444444444,0.2431107093545207,0.020323343670675,3000,1.5
32,32,32,2381,410,5884.004386652044,5.319166666666668,0.3770609575875348,0.0301391257379722,3500,2.5
33,33,33,1275,579,6375.105768688366,5.4166944444444445,0.2896352726543179,0.0227342062286377,3500,2.0
34,34,34,1869,231,5199.283588825114,1.9696944444444444,0.1063300315807047,0.022951959319383,3000,1.8
35,35,35,1650,450,6408.951920078915,15.234472222222225,0.7805258100040117,0.0217832430881542,3500,1.8
36,36,36,842,385,4949.175372374582,3.547055555555556,0.2199303637248782,0.0263620927954454,3000,1.8
37,37,37,1830,450,8660.762906764652,9.457249999999998,0.6190737454313943,0.027831729779685,3500,1.8
38,38,38,1831,353,3504.185783556937,5.109888888888889,0.2216955325994191,0.0184462532799063,3000,1.8
39,39,39,1023,574,4294.740171593499,2.1076944444444448,0.0810226409875549,0.0163441156621272,3500,2.0
40,40,40,2063,351,3638.798867343533,2.579972222222222,0.1023207974855762,0.016862096441515,3000,1.8
41,41,41,1518,115,3058.2440752298226,4.940416666666666,0.2951280150709717,0.0253985861336515,3500,2.5
42,42,42,719,448,5227.195264149252,1.8581666666666663,0.0794827476063229,0.0181865737950147,3000,1.5
43,43,43,1061,374,4606.48024018786,9.427805555555556,0.5221451472628775,0.0235474190121599,4000,2.0
44,44,44,980,399,5966.333773776233,4.519861111111112,0.2139766674261047,0.020128157040522,3000,1.8
45,45,45,772,220,4171.334917298089,7.914972222222222,0.3581156464940534,0.01923696628448,3000,1.8
46,46,46,2640,565,7164.638052530428,0.2601666666666667,0.0193154964918248,0.0315658076517944,2500,1.3
47,47,47,252,376,4701.857611162478,3.9656666666666665,0.3424386791070233,0.0367137958706601,4000,3.3
48,48,48,1321,5,5791.004102222159,5.748916666666666,0.306476926703627,0.0226659774929221,3500,2.0
49,49,49,1353,383,4499.475529177612,3.098361111111111,0.141650152600808,0.0194378262757605,3000,1.8
50,50,50,2497,565,3998.973753752213,6.496166666666667,0.258553035528702,0.0169221353676855,2500,1.3
51,51,51,1484,445,5980.608726747678,4.116972222222222,23.40344812433152,2.4169329045709165,3500,2.4
52,52,52,1107,375,4307.36352829609,6.239083333333333,0.4420678874875253,0.030125264202121,4500,3.3
53,53,53,1183,450,5288.200145088007,11.640444444444444,0.6025019922435764,0.0220065319886467,3500,1.8
54,54,54,732,220,4558.4042892402895,9.408555555555555,0.442837446142192,0.0200117038146302,3000,1.8
55,55,55,1045,375,4243.048927912452,11.78775,1.2488052608099287,0.0450429146946021,4500,3.3
56,56,56,1993,422,3324.999067059746,2.977444444444444,0.0959582851252114,0.0137025531040842,2500,1.5
57,57,57,2195,410,4375.4234040585125,6.30636111111111,0.3707564791381806,0.0249961197399519,3500,2.5
58,58,58,1112,411,6064.697237404845,5.046583333333333,0.2698315389513175,0.0227330623897657,3000,1.5
59,59,59,1527,384,6347.296626336008,2.1259444444444444,0.0872221461696657,0.0174436570613805,3000,1.8
60,60,60,1967,292,4234.78195147759,3.675277777777778,0.1430879297980926,0.0165529542321865,3000,1.8
61,61,61,767,458,4326.967847958733,1.8255277777777776,0.1288014488281714,0.0299981854162414,3500,2.4
62,62,62,1278,564,5558.112006397827,8.752972222222223,0.4643060564205198,0.022553371881219,3000,1.5
63,63,63,725,242,3972.50616848784,1.4185,0.0733566896767036,0.0219873589990095,3500,1.8
64,64,64,1370,411,4638.3350544125815,6.644194444444445,0.340283138588121,0.0217751311151041,3000,1.5
65,65,65,1979,351,5700.515728202189,5.526166666666667,0.3109947503447204,0.0239271935024586,3000,1.8
66,66,66,925,124,2678.818420629389,1.036277777777778,0.0601346834032178,0.0246724073232261,3000,1.8
67,67,67,1396,565,6891.771048041858,2.6279166666666667,0.1182059835054649,0.0191245204559664,2500,1.3
68,68,68,1532,386,2913.9801740057146,6.047055555555556,0.2953728708089077,0.0207677443048856,3000,1.5
69,69,69,1998,452,4903.5472299721005,3.345333333333333,0.2119230711467338,0.0269340414236724,3000,1.5
70,70,70,1427,451,6330.655266455369,3.39175,0.1992214345641159,0.0249732412135634,3000,1.5
71,71,71,775,447,4390.243902439024,16.386333333333333,0.7405912213999745,0.019215843689842,3000,1.5
72,72,72,1673,351,5113.300282379384,7.810611111111111,0.3922019651750165,0.0213494864667696,3000,1.8
73,73,73,2043,450,11058.28011083846,11.738805555555556,1.1941515122366586,0.0432512045019923,3500,1.8
74,74,74,1921,231,4764.21568627451,8.16,0.3047088070341637,0.0158766010067654,3000,1.8
75,75,75,1907,475,3810.1112168235945,1.693388888888889,0.08521661938824,0.0213958861429167,3000,1.5
76,76,76,2320,438,4980.108499095841,8.264277777777778,0.5816804672670198,0.0299255579843929,5000,3.5
77,77,77,2635,565,7166.589027842476,1.550388888888889,0.0721638530588988,0.0197898156611186,2500,1.3
78,78,78,1544,450,4686.359061487178,3.008305555555556,0.1446050405769536,0.0204373305183844,3500,1.8
79,79,79,2573,422,4263.531843431081,11.6115,0.4908932294552032,0.017974689554456,2500,1.5
80,80,80,645,452,4132.821750900639,6.638805555555555,0.3599828507199808,0.0230544383094882,3000,1.5
81,81,81,1009,532,5392.077793395857,1.2054722222222225,0.0727471071238238,0.0256579056028362,3500,2.5
82,82,82,1088,292,5313.229701781306,3.74725,0.2014526756092892,0.0228572013591474,3000,1.8
83,83,83,2178,389,5580.950060901339,6.841666666666667,0.2892074044597769,0.0179725698165363,3000,1.5
84,84,84,1895,349,2556.1594772063213,1.7682777777777778,0.0889005339237277,0.0213755138084174,3500,2.5
85,85,85,679,475,5553.849397814519,2.239527777777778,0.1026751312887497,0.0194926774241923,3000,1.5
86,86,86,2491,410,2933.576128791955,2.013583333333333,0.0102518706605455,0.0021646924038324,3500,2.5
87,87,87,1759,351,5589.016767363712,6.381444444444444,0.2767011675274143,0.018435489840119,3000,1.8
88,88,88,2206,347,4619.35739197111,3.369083333333333,0.2703236746633632,0.0341141859000186,4000,3.3
89,89,89,1240,458,7041.763621528513,3.6767777777777777,0.2998389840232299,0.0346723595874799,3500,2.4
90,90,90,2202,450,5526.437606530904,7.740972222222223,0.4000416511716606,0.021972141374452,3500,1.8
91,91,91,1907,445,6801.280133995334,3.714888888888889,31.01213363529129,3.5493473322507554,3500,2.4
92,92,92,1064,447,11591.19707206131,2.906861111111112,0.2261523863831472,0.0330780253433867,3000,1.5
93,93,93,927,452,4781.170242934115,5.877222222222223,0.3337292136653754,0.0241426420699683,3000,1.5
94,94,94,1256,353,2566.5414473616624,8.111694444444444,0.3670790623066511,0.0192402501057191,3000,1.8
95,95,95,1788,475,4171.366997716187,11.652055555555556,0.4503745166638756,0.0164336466621465,3000,1.5
96,96,96,2346,349,6075.321522410535,1.8078055555555557,0.0818796773018285,0.0192569316215903,3500,2.5
97,97,97,2187,438,571.5815649137731,22.72116666666668,2.2431164249552937,0.0419743394774855,5000,3.5
98,98,98,1417,452,3447.576248223904,5.043833333333334,0.2123744117320309,0.0179021068136033,3000,1.5
99,99,99,879,220,2481.590833820721,7.884055555555556,0.2766549974210008,0.0149194057861082,3000,1.8
100,100,100,1224,387,8909.219668114914,1.4513055555555556,0.1183239500288213,0.0346638250576699,3000,1.5
101,101,101,587,428,5181.730053247537,1.9771388888888888,0.0725679048214715,0.0156052269281276,3000,1.8
102,102,102,692,348,4556.9520472958175,6.343055555555556,0.3862156147341824,0.0258877315122808,3000,1.5
103,103,103,785,448,8198.260347930416,1.111333333333333,0.0555937327872258,0.0212688582642753,3000,1.5
104,104,104,766,418,4829.537903605447,14.338638888888893,0.620545404943851,0.0184004447059755,3000,1.8
105,105,105,516,451,5166.897553097706,3.7496388888888887,0.1544947860705361,0.0175181025826526,3000,1.5
106,106,106,1454,437,4047.771524034924,2.793388888888889,0.1127935319133837,0.0171678328883588,3000,1.5
107,107,107,834,242,3478.005244112829,8.920055555555557,0.5045292561836798,0.0240481392562328,3500,1.8
108,108,108,2367,422,5758.304547697582,3.2085833333333333,0.1128530326845426,0.0149541796484109,2500,1.5
109,109,109,1845,452,4065.3282936876176,6.136527777777777,0.2646849028057625,0.0183387254497941,3000,1.5
110,110,110,887,374,3721.0477732548457,7.342555555555556,0.2739356128687509,0.0158622188524483,4000,2.0
111,111,111,2279,347,6160.12213740458,0.9097222222222222,0.0894657708954674,0.0418129479181184,4000,3.3
112,112,112,40,605,4919.478991887358,1.605861111111111,0.092980355425858,0.0246176109304081,4000,2.3
113,113,113,917,456,3822.97564873033,0.7996388888888888,0.0339663598500634,0.018060001494118,3500,1.8
114,114,114,956,430,6480.050813964431,2.3615555555555554,0.1466177610232004,0.0263967888799324,3500,1.8
115,115,115,1058,385,4131.707409012948,4.4214166666666666,0.2647154711036086,0.0254554373274726,3000,1.8
116,116,116,608,574,4311.908410709456,4.622083333333334,0.1628092081800436,0.0149762773894958,3500,2.0
117,117,117,1236,468,5992.275398824518,7.44375,0.3754157422853788,0.0214428932575597,3500,1.8
118,118,118,2295,381,6233.44393436662,7.333666666666667,0.641599124457757,0.0371967742455211,3500,2.4
119,119,119,583,532,2643.746711103316,4.750833333333333,0.19364805716065,0.0173302980465877,3500,2.5
120,120,120,2414,565,7873.690682711523,1.2649722222222222,0.075145854859365,0.0252572883904057,2500,1.3
121,121,121,950,349,5825.407005636279,6.539972222222223,0.3994762490568059,0.0259703463891816,3500,2.5
122,122,122,911,383,4543.748872451741,2.7715,0.147182303306718,0.0225789319535698,3000,1.8
123,123,123,1870,422,5440.817343633192,1.1147222222222224,0.0424531414907698,0.0161921999003632,2500,1.5
124,124,124,1898,383,5045.222596578456,6.793555555555556,0.2736564581475497,0.0171266038785141,3000,1.8
125,125,125,1569,349,6186.51318826752,1.805055555555556,0.0778670664576887,0.0183411229870458,3500,2.5
126,126,126,452,368,6846.922333225911,6.206,0.4811829607722697,0.032965612659536,3500,2.4
127,127,127,920,384,5345.378220429665,4.049666666666667,0.1253848230225459,0.0131640152442363,3000,1.8
128,128,128,1679,452,4900.621602642462,1.0680277777777778,0.0449695123166029,0.0179018664201623,3000,1.5
129,129,129,1631,410,3833.244897797559,3.5074722222222223,0.2302445073205818,0.0279098640383134,3500,2.5
130,130,130,1521,405,8972.284076372767,1.172611111111111,0.0821342322822288,0.029780561343742,3000,1.5
131,131,131,544,407,3765.4679545751214,3.4048888888888884,0.2707308395404965,0.0338062865546427,3500,2.3
132,132,132,1294,375,7829.638115775995,1.2365833333333334,0.1444634311698266,0.0496703499086888,4500,3.3
133,133,133,1312,477,4361.312442489254,6.611083333333334,0.2182091889002812,0.0140334058748155,3000,1.5
134,134,134,1943,549,5527.547994381146,2.1356666666666664,0.0665370364709773,0.0132462414496774,3000,1.5
135,135,135,785,385,4295.892913607139,1.5812777777777778,0.0530803075263658,0.0142721021436259,3000,1.8
136,136,136,1528,418,4958.212861795051,2.738083333333333,0.1178018460485115,0.0182922916510369,3000,1.8
137,137,137,2481,422,4394.60596474636,5.1105833333333335,0.2051714036563574,0.017069037712553,2500,1.5
138,138,138,3167,347,5699.440341125409,5.83688888888889,0.4909337768806052,0.0357605483480286,4000,3.3
139,139,139,1953,411,5092.35292899592,5.36588888888889,0.1695041397262228,0.013430782506049,3000,1.5
140,140,140,1158,272,5687.755403475949,1.692583333333333,0.0814233992031448,0.0204532276174729,2500,1.5
141,141,141,2348,458,5004.244482173174,1.8324444444444443,0.1053404759988431,0.024441459866482,3500,2.4
142,142,142,1487,450,5851.645535602883,14.470972222222224,0.7361022230581356,0.0216273397147429,3500,1.8
143,143,143,1592,369,5886.87218287186,2.760888888888889,0.143364572351326,0.0220777899554792,3000,1.8
144,144,144,2475,410,3341.013633914881,1.3406111111111112,0.055405522826251,0.0175716654247302,3500,2.5
145,145,145,1154,565,2565.5967328436286,20.099027777777778,0.820698604370066,0.0173608636849417,2500,1.3
146,146,146,991,474,4210.101129227232,1.8842777777777773,0.0731296773902813,0.0165010436770649,3000,1.5
147,147,147,1265,201,4279.670908418026,8.78175,0.509889394116981,0.0246863903416824,2500,1.5
148,148,148,1614,231,4683.705331328784,1.2009722222222223,0.059187829102108,0.0209537680056931,3000,1.8
149,149,149,1776,445,5498.559598494354,5.534722222222222,36.80520671278336,2.827327481585284,3500,2.4
150,150,150,872,564,5219.241224441556,8.460999999999999,0.3817737505614321,0.0191843483627476,3000,1.5
151,151,151,2458,450,5347.282146379439,12.702527777777778,0.6746518011909635,0.0225814701786248,3500,1.8
152,152,152,2028,353,4948.01998657618,2.234833333333333,0.1131692560680709,0.0215300978302858,3000,1.8
153,153,153,1019,385,5177.23638151656,2.3726944444444444,0.0951815418436032,0.017055859306003,3000,1.8
154,154,154,511,436,4095.630945365771,5.939500000000001,0.3366343890628659,0.024097460408815,3500,2.0
155,155,155,274,574,5530.950812378615,3.2466388888888886,0.1822355708175795,0.0238650224719031,3500,2.0
156,156,156,458,428,5719.105162735393,2.009055555555556,0.0985908053005577,0.0208644600596444,3000,1.8
157,157,157,875,440,4261.178583980943,0.7113055555555555,0.0400822829132939,0.0239584617606716,3000,1.5
158,158,158,2061,458,6217.163303676168,5.185805555555556,0.369803042194321,0.030319143847958,3500,2.4
159,159,159,1509,477,6032.332611376519,5.360944444444445,0.2789265175091123,0.0221213272498726,3000,1.5
160,160,160,1781,445,6529.612756264237,6.536222222222222,31.213932797818497,2.030412902108039,3500,2.4
161,161,161,1183,565,4513.307487260778,7.430027777777777,0.3729169548447993,0.0213395066346958,2500,1.3
162,162,162,1600,383,4517.235759106837,1.363444444444445,0.0846082494745778,0.0263838364161784,3000,1.8
163,163,163,145,574,5344.706778370144,4.376666666666667,0.1666453889676709,0.016188720037427,3500,2.0
164,164,164,1547,338,4942.752457442058,4.541194444444445,0.2658290606313672,0.0248882890118295,3000,1.8
165,165,165,1434,565,5588.242405924134,3.676111111111112,0.198710157677433,0.0229823334235063,2500,1.3
166,166,166,1377,241,5959.657869459818,1.8219166666666664,0.107837964474262,0.025165516914296,3000,1.8
167,167,167,1496,349,3355.399229106236,21.95863888888889,1.1723148188041024,0.0226987279941315,3500,2.5
168,168,168,2666,438,3475.544511036398,3.800555555555556,0.2773719860504361,0.0310297440608436,5000,3.5
169,169,169,1273,445,4863.443121241898,5.455805555555556,34.78021509660674,2.71041668696705,3500,2.4
170,170,170,1564,292,4714.5731181578285,3.1894722222222223,0.1526525265131733,0.0203492241223881,3000,1.8
171,171,171,831,565,5340.053327756575,2.656527777777778,0.129205499063266,0.0206789898023094,2500,1.3
172,172,172,1738,468,4106.924428460283,10.782277777777775,0.5743336019651513,0.0226472978762529,3500,1.8
173,173,173,1293,474,7573.511004987386,1.442527777777778,0.0698388134424172,0.0205842643169028,3000,1.5
174,174,174,1251,399,5112.58593777926,2.331305555555556,0.0950457289272444,0.0173338921349854,3000,1.8
175,175,175,1381,351,5890.646509860226,6.578055555555555,0.3397690896512854,0.0219608432523157,3000,1.8
176,176,176,733,474,8692.222658060835,0.7789722222222223,0.0494642979992099,0.0269980601942988,3000,1.5
177,177,177,605,392,4923.984255469392,4.24838888888889,0.2588802665154217,0.0259082074179068,4500,3.5
178,178,178,1937,438,7057.37028626209,3.535027777777778,0.3760571134403947,0.0452296950843423,5000,3.5
179,179,179,1367,405,5275.546562700489,2.8143055555555554,0.1945218964998145,0.0293873164569303,3000,1.5
180,180,180,964,451,3630.799765438224,9.237083333333334,0.4408572132632469,0.0202920429089364,3000,1.5
181,181,182,1933,444,7987.160120845921,1.029777777777778,0.0495420769098521,0.0204547123316508,3000,1.8
182,182,183,2179,389,6450.457671114349,6.099722222222223,0.1926812815830915,0.013430499064334,3000,1.5
183,183,184,441,458,3693.24238801772,5.925416666666667,0.3017147659469787,0.0216491252478713,3500,2.4
184,184,185,1176,448,7347.927507626054,0.9288333333333334,0.0459937122785321,0.0210534539152565,3000,1.5
185,185,186,1618,422,5570.252950308746,4.759388888888889,0.1920762893741947,0.0171587342253736,2500,1.5
186,186,187,1296,384,5764.198015361328,2.972833333333333,0.1078808378245438,0.0154289521186389,3000,1.8
187,187,188,691,392,4172.624185243608,2.799916666666667,0.1594634318125713,0.0242146771576309,4500,3.5
188,188,189,1272,418,3669.279193643848,1.5488055555555555,0.0711840873859629,0.0195410864635545,3000,1.8
189,189,190,1482,418,3929.2628490333655,13.329472222222224,0.5707251259989161,0.0182044147435376,3000,1.8
190,190,191,2038,450,7933.212259602586,9.39127777777778,0.8103880955012539,0.0366885923136052,3500,1.8
191,191,192,1296,574,3871.180432470756,1.567222222222222,0.0881866677654423,0.0239240683301194,3500,2.0
192,192,193,1641,475,4434.103864860624,8.498222222222223,0.3402780272358086,0.0170242702773406,3000,1.5
193,193,194,2986,393,5123.6548989994335,2.6485000000000003,0.0932371637106435,0.0149675858929652,3500,2.5
194,194,195,680,436,4578.779722956122,1.1249722222222225,0.0632239987571811,0.0238947694187892,3500,2.0
195,195,196,619,436,4380.883672142352,5.852472222222223,0.3836736079128124,0.0278730983732197,3500,2.0
