,TripId,TripId_raw,VehId,Aggressiveness,Distance[km],Fuel Consumed[L],Fuel Rate[gpm]
0,0,918,392,4492.834692549465,-4.467382831698682e-07,-3.791319492252961e-06,8.48666800022452
1,1,1736,450,4620.973845765705,2.6313659747336876e-07,5.008543307277216e-06,19.034004982085836
2,2,854,418,6394.647968865589,-2.0143270896849054e-07,-4.894800464955149e-06,24.299928695894305
3,3,1240,468,6054.3796297617855,-8.271843271331219e-07,-1.199308935686964e-05,14.498690271895766
4,4,2320,565,4832.069296161308,-8.120444158972539e-07,-1.6179673952776937e-05,19.92461697418299
5,6,1175,201,6217.934981814081,-2.4691179728994164e-07,-2.50250251927035e-06,10.135208389138779
6,7,4068,347,4532.232325106699,-1.5569111371291799e-07,-1.4672066334465955e-06,9.423830290995333
7,8,2358,349,4389.613443639151,4.649182353682948e-07,0.00011038117350638058,237.42061530225806
8,9,3265,125,5906.293169608594,1.837362815685303e-07,3.1612148388750716e-06,17.205174785775753
9,10,3131,347,5189.347501619277,-7.689922101438991e-09,-7.981746232462873e-07,103.79489060063787
10,11,1000,349,3697.8810739785104,-1.1633444707728945e-07,1.1628632426043859e-05,-99.95863407781627
11,12,1377,353,4429.943108992377,1.1300415143976814e-07,2.4669579549593038e-06,21.830684302551543
12,13,872,474,6409.282860947308,-1.2351068365317912e-07,-2.9190337653989427e-06,23.63385643298403
13,14,2216,468,5763.372511827755,8.413578818659777e-07,1.4579397234015345e-05,17.328413447177688
14,15,1100,475,4042.0974366237083,-1.735022852593847e-07,-5.560391062788148e-06,32.047941354059994
15,16,1137,374,3957.189324694698,7.718836213161119e-07,5.362574010604894e-06,6.947386707676677
16,17,675,397,4177.740515615175,2.2471717042751592e-07,6.5697292898474215e-06,29.235546519871
17,18,1020,450,5584.830081405866,1.389973219436785e-10,-2.703134425039426e-07,-1944.7384936917936
18,19,2093,475,4281.334596643205,-4.309398566534708e-10,1.700041446851752e-05,-39449.622043634656
19,20,1136,452,4694.408943778889,-1.7011592589030374e-07,-3.115847533932171e-06,18.31602489670115
20,21,1508,351,8758.015815959741,1.9379969729767624e-07,2.3530654950003874e-06,12.141739785001212
21,22,1093,450,4687.015983731785,-3.7075361965899746e-09,-1.9514169956200633e-05,5263.37948477722
22,23,1372,375,6108.025633201098,-3.4312743111974265e-09,-8.695344575199004e-08,25.341443984303755
23,24,1278,374,3543.761754796323,-8.125044597292003e-07,-5.703257067243287e-06,7.019354785011427
24,25,2503,410,3869.4921179231933,1.2328760047830654e-08,-0.00017985084285645036,-14587.910070331573
25,26,1026,124,6870.378425402348,-8.714901402205447e-08,-1.63714230675389e-06,18.785551679788192
26,27,2239,351,4876.054505444501,-2.3336599177260273e-08,-3.603872695245027e-07,15.443007217421487
27,28,1097,351,4254.834402859727,-1.4069907131902472e-07,-4.187886493318471e-06,29.764848154702804
28,29,2845,125,4582.114557391895,-2.402952555255313e-07,-2.6580108543371555e-06,11.061437099638209
29,30,999,220,3298.301350208808,-7.105550916158055e-09,-9.279666878792293e-08,13.059742992890655
30,31,631,452,4481.763465760757,-4.903479980140866e-08,-7.820537649796758e-07,15.948953970384295
31,32,2381,410,5884.004386652044,5.644976314149296e-07,0.00027288029275563617,483.40378695948436
32,33,1275,579,6375.105768688366,-6.588468933226971e-07,-4.696507861648578e-06,7.128375210154132
33,34,1869,231,5199.283588825114,-8.515883142735524e-09,-1.6246914307154248e-07,19.07836689963704
34,35,1650,450,6408.951920078915,5.235153529345941e-10,-2.908395607986181e-05,-55555.115846803914
35,36,842,385,4949.175372374582,-1.8115026741714913e-07,-1.7789376930818152e-06,9.82023222182341
36,37,1830,450,8660.762906764652,-8.353409422705092e-10,7.678375371791481e-07,-919.1905943124461
37,38,1831,353,3504.185783556937,1.798391236600508e-07,2.6966738407479215e-06,14.994923161688854
38,39,1023,574,4294.740171593499,7.567738220231443e-09,5.830127157012615e-08,7.703922872789742
39,40,2063,351,3638.798867343533,-1.4027859819909626e-07,-3.400113403798235e-06,24.238290426687055
40,41,1518,115,3058.2440752298226,2.7325344327812966e-07,3.9892830415363394e-06,14.599205022554345
41,42,719,448,5227.195264149252,2.5046350895132854e-07,5.939456288414847e-06,23.71385881034285
42,43,1061,374,4606.48024018786,-3.8744125763968673e-07,-5.679579670901095e-05,146.59202031041826
43,44,980,399,5966.333773776233,-1.5949549556470925e-07,-9.743045171500342e-07,6.108664785174119
44,45,772,220,4171.334917298089,-6.663926691504781e-07,-3.92159091391475e-06,5.884805003803569
45,46,2640,565,7164.638052530428,2.5612947491485288e-08,2.0590241960751667e-07,8.038997451424379
46,47,252,376,4701.857611162478,-5.547974626177315e-07,-5.7377287863365865e-06,10.34202420332628
47,48,1321,5,5791.0041022221585,-5.201286555075413e-07,-3.2411821696468668e-06,6.231500870653094
48,49,1353,383,4499.475529177612,1.2968285246728484e-07,3.3946859177760254e-07,2.6176829497426457
49,50,2497,565,3998.9737537522124,3.630233133601411e-07,1.1609518392331869e-05,31.980090437923266
50,52,1107,375,4307.36352829609,4.447997351213415e-07,1.0547945987094766e-05,23.71392146674117
51,53,1183,450,5288.200145088007,-5.60835249896764e-07,-1.2690402489027383e-05,22.627683426395496
52,54,732,220,4558.4042892402895,-1.0974128236992425e-06,-1.2329932459370548e-05,11.235455056746899
53,55,1045,375,4243.048927912452,-1.0946491934641392e-06,-1.205774293918047e-05,11.015166330157701
54,56,1993,422,3324.999067059746,-2.6566081072144745e-08,4.0704454558501164e-08,-1.532196429272396
55,57,2195,410,4375.4234040585125,5.660297608263936e-07,4.690090020806641e-06,8.285942445780927
56,58,1112,411,6064.697237404845,6.212003919732361e-07,9.248164183444265e-06,14.887569780932647
57,59,1527,384,6347.296626336008,9.689983211162466e-08,7.287403714999221e-06,75.20553499622608
58,60,1967,292,4234.78195147759,-2.3728834110754025e-07,-5.525045419435883e-06,23.2840998156412
59,61,767,458,4326.967847958733,-5.479367551035384e-08,-1.9145421331334194e-06,34.9409327865156
60,62,1278,564,5558.112006397827,-7.908230211524388e-07,-1.5780308592172484e-05,19.95428581375437
61,63,725,242,3972.5061684878397,-4.940171585848903e-09,-3.0402611806919614e-08,6.15416110120704
62,64,1370,411,4638.3350544125815,-6.929514131961326e-07,-1.231106414074118e-05,17.766128917983263
63,65,1979,351,5700.515728202189,-6.555456915929815e-07,-6.083804738821779e-06,9.280519751473133
64,66,925,124,2678.818420629389,-9.311062656638398e-08,-1.5593735445055972e-06,16.74753572186338
65,67,1396,565,6891.771048041858,2.3737847871963518e-07,4.772869405641628e-06,20.106580138963675
66,68,1532,386,2913.9801740057146,5.226303227728451e-07,8.292895098408082e-06,15.867611841597045
67,69,1998,452,4903.5472299721005,2.1739346217325988e-07,5.093031854894897e-06,23.42771398909786
68,70,1427,451,6330.655266455369,2.0629618017292972e-07,3.32666113826483e-06,16.12565552826148
69,71,775,447,4390.243902439024,-3.7204227904292376e-07,-6.06069695419248e-06,16.290344661320702
70,72,1673,351,5113.300282379384,-2.449485012433634e-08,-4.87831721891843e-07,19.91568510995575
71,73,2043,450,11058.28011083846,-1.2614271247531093e-06,-5.961383075917485e-05,47.25903668104701
72,74,1921,231,4764.21568627451,-5.935704727469235e-07,-7.474916248336831e-06,12.593140311957296
73,75,1907,475,3810.1112168235945,-2.1845931610477453e-07,-3.874815312929425e-06,17.737011092129567
74,76,2320,438,4980.108499095841,-6.515718698867045e-09,-3.73882118158e-07,57.38156225544401
75,77,2635,565,7166.589027842476,3.01607026856813e-08,6.803062777621392e-07,22.55604867207263
76,78,1544,450,4686.359061487178,-2.6368560438035865e-07,-2.9034972565992026e-06,11.011208834938877
77,79,2573,422,4263.531843431081,9.75749729147338e-07,1.1994327981184364e-05,12.292422557642569
78,80,645,452,4132.821750900639,-1.0503601642331493e-07,-7.704798506426846e-07,7.3353872022098185
79,81,1009,532,5392.077793395857,1.2040934217168505e-07,1.421416025337326e-06,11.804864968954046
80,82,1088,292,5313.229701781306,5.357012762704587e-07,9.568299594182654e-06,17.861259657242112
81,83,2178,389,5580.950060901339,-7.913750769604076e-07,-1.966240405681045e-05,24.845872240924965
82,84,1895,349,2556.1594772063213,1.719344066954009e-07,9.922070482351795e-06,57.70846378601661
83,85,679,475,5553.849397814519,2.2223169636361116e-07,8.459502427211937e-06,38.06613802457173
84,86,2491,410,2933.576128791955,6.873861167687637e-08,9.068214439997162e-08,1.3192315379636483
85,87,1759,351,5589.016767363712,-7.357694611424685e-07,-6.982667268715711e-06,9.490292323186873
86,88,2206,347,4619.35739197111,4.715473309857938e-07,5.1093188518669994e-06,10.835219533924002
87,89,1240,458,7041.763621528513,1.2544035366891632e-07,2.3320546472293143e-06,18.590944453046365
88,90,2202,450,5526.437606530904,7.372878400105969e-09,-4.024425777008754e-06,-545.8418759423608
89,92,1064,447,11591.19707206131,-2.3105181177236707e-07,-5.195044224459517e-06,22.484325851457463
90,93,927,452,4781.170242934115,-4.79654901362656e-07,-6.687986810139603e-06,13.943330488523396
91,94,1256,353,2566.5414473616624,-5.010442690015587e-07,-5.385720461205275e-06,10.748991245698733
92,95,1788,475,4171.366997716187,-4.994113404927579e-10,-2.8756824126988577e-06,5758.14399781448
93,96,2346,349,6075.321522410535,1.7086558469015235e-07,6.440036865307723e-07,3.7690661211771146
94,97,2187,438,571.5815649137731,7.371987019184867e-09,3.699614567655094e-07,50.184767797707906
95,98,1417,452,3447.576248223904,-5.2081642125840894e-08,2.5056255236582112e-06,-48.10957222900268
96,99,879,220,2481.590833820721,-6.640680386216922e-07,-6.252757637179839e-06,9.415838850124096
97,100,1224,387,8909.219668114914,-1.515282024693464e-07,-1.6828434796219416e-06,11.105810352118278
98,101,587,428,5181.730053247537,-9.007003654968149e-08,-1.5305765180514365e-06,16.993181935783827
99,102,692,348,4556.9520472958175,1.8760783317191067e-08,5.841320905064275e-07,31.135804973088188
100,103,785,448,8198.260347930416,-1.2558241643352644e-07,-4.290169841418684e-06,34.16218578410272
101,104,766,418,4829.537903605447,1.1623990721122387e-06,1.5280555395363715e-05,13.145705086977442
102,105,516,451,5166.897553097706,-6.524766996525071e-08,-2.397268383178838e-07,3.6741057335159457
103,106,1454,437,4047.7715240349235,-3.8162662346538477e-07,-4.51506124653992e-06,11.831096073802767
104,107,834,242,3478.005244112829,3.418648505727832e-07,2.7605989377132718e-06,8.075117793151241
105,108,2367,422,5758.304547697582,2.514546820783763e-07,8.688882964382062e-06,34.55446879161236
106,109,1845,452,4065.3282936876176,7.855975097598445e-08,1.3903237862423418e-06,17.69766030275937
107,110,887,374,3721.0477732548457,-7.90919524532274e-07,-1.5444644557548594e-05,19.52745390459553
108,111,2279,347,6160.12213740458,-1.2142562577048113e-07,-9.049213827756237e-07,7.452474525320604
109,112,40,605,4919.478991887358,-2.389097784670035e-07,-3.859202832377808e-06,16.153390025058407
110,113,917,456,3822.9756487303302,-1.0873398936838896e-07,-7.353689200893226e-07,6.763008736834853
111,114,956,430,6480.050813964431,-2.437975504668055e-07,-5.317299106781288e-06,21.8103057089791
112,115,1058,385,4131.707409012948,-5.947845384802416e-07,-9.207629029592023e-06,15.480612614979561
113,116,608,574,4311.908410709456,2.853952942723472e-07,-1.7691445219809042e-09,-0.006198926742963897
114,117,1236,468,5992.275398824518,8.92061990566317e-07,1.3909505690810514e-05,15.59253262430809
115,118,2295,381,6233.44393436662,2.506820389894397e-07,2.7744478375205914e-06,11.067597218791843
116,119,583,532,2643.7467111033156,4.4295693867905716e-07,1.99564654026388e-06,4.505283394397437
117,120,2414,565,7873.690682711523,-6.819224237521795e-08,-1.314684660996634e-06,19.279094149196204
118,121,950,349,5825.407005636279,-3.066724029035781e-07,-3.346808743950714e-06,10.913302639112901
119,122,911,383,4543.748872451741,-1.0892680356549103e-07,-5.516039171493991e-06,50.63986999469358
120,123,1870,422,5440.817343633192,-1.1221773775814778e-07,-1.6240543016429236e-06,14.472349328081211
121,124,1898,383,5045.222596578456,3.0966867122778255e-08,-1.5340810921080334e-06,-49.53943471342025
122,125,1569,349,6186.51318826752,1.6891980551526167e-07,6.93881360471056e-07,4.107756093813196
123,126,452,368,6846.922333225911,-7.977192486749524e-07,-1.2226700347561919e-05,15.32707198412351
124,127,920,384,5345.378220429665,1.076505611826554e-07,1.3755899718112714e-06,12.778288907172977
125,128,1679,452,4900.621602642462,-1.2192043694723164e-07,-3.3373537492655265e-06,27.37321020847363
126,129,1631,410,3833.244897797559,-6.8016556382181e-09,3.987143813357448e-05,-5862.019522061546
127,130,1521,405,8972.284076372767,1.5856312117984937e-07,2.5136411936056012e-06,15.852621813331469
128,131,544,407,3765.4679545751214,-1.2293237926922654e-07,-5.738624651163125e-07,4.6681148492174875
129,132,1294,375,7829.638115775995,1.6129446881143047e-09,7.922827827676247e-08,49.120269814948415
130,133,1312,477,4361.312442489254,5.049481102334185e-07,7.1972554712483836e-06,14.253455603430941
131,134,1943,549,5527.547994381146,2.990795165572468e-07,6.3901349034022256e-06,21.366006528832575
132,135,785,385,4295.892913607139,2.770239781909763e-09,-4.556260914224274e-08,-16.44717162744394
133,136,1528,418,4958.212861795051,-2.0005533847476134e-07,-5.62326761807764e-06,28.10856066601323
134,137,2481,422,4394.60596474636,-2.2151472737569e-07,-5.952940374269486e-06,26.873790491470448
135,138,3167,347,5699.440341125409,3.7973976393927904e-07,3.3133671022931143e-06,8.725362516480962
136,139,1953,411,5092.35292899592,-7.663802483221097e-07,-8.287137442650042e-06,10.813349457783726
137,140,1158,272,5687.755403475949,-1.7091585685823607e-07,-2.246847384345593e-06,13.145927040632698
138,141,2348,458,5004.244482173174,-7.218721089015863e-09,-1.760203806727516e-07,24.383873334653057
139,142,1487,450,5851.645535602883,1.0454999647484975e-08,-4.954175723978286e-05,-4738.570914414186
140,143,1592,369,5886.87218287186,2.2378176351703995e-07,5.85908271159921e-06,26.18212771012088
141,144,2475,410,3341.013633914881,-1.847902451461796e-07,-7.508013275954756e-06,40.62992215858305
142,145,1154,565,2565.5967328436286,4.913502553086853e-07,7.995100821067072e-06,16.271693633382238
143,146,991,474,4210.1011292272315,1.5870331415929335e-07,4.097644188360711e-06,25.819525005305387
144,147,1265,201,4279.670908418026,-1.910509125664632e-08,2.4319011024389155e-06,-127.29073469318814
145,148,1614,231,4683.705331328784,-1.522062049187776e-07,-2.9620084284114537e-06,19.46049722474903
146,150,872,564,5219.241224441556,-7.878240632953917e-07,-1.788873286694896e-05,22.706507328707534
147,151,2458,450,5347.282146379439,6.732269158575529e-07,8.553289724005083e-06,12.704913488359193
148,152,2028,353,4948.01998657618,-1.699129228653329e-07,-1.390358143700309e-05,81.82768680886377
149,153,1019,385,5177.23638151656,4.696929345352928e-08,2.290747782897528e-06,48.771178241460234
150,154,511,436,4095.630945365771,-6.423143238690617e-07,-3.495237790807003e-06,5.441631395907529
151,155,274,574,5530.9508123786145,2.3632375735814063e-07,2.425042314189216e-06,10.26152571920286
152,156,458,428,5719.105162735393,-1.933163824173857e-07,-4.073947055176535e-06,21.073987647775006
153,157,875,440,4261.178583980943,-9.589231224910296e-08,-1.589926918946061e-06,16.580337689801972
154,158,2061,458,6217.163303676168,5.308451918299661e-07,1.1651340142879065e-05,21.94865908592628
155,159,1509,477,6032.332611376519,5.751266822787231e-07,1.4207734939869177e-05,24.703661606476633
156,161,1183,565,4513.307487260778,5.064372693857878e-07,1.3394224860565574e-05,26.44794463253114
157,162,1600,383,4517.235759106837,-5.6422496910129814e-08,-7.111664313035181e-07,12.604306265216682
158,163,145,574,5344.706778370144,-3.495146686860333e-07,-2.295358945459402e-06,6.567274999039618
159,164,1547,338,4942.752457442058,3.4272451243652446e-07,7.4545388046317384e-06,21.75081890593508
160,165,1434,565,5588.242405924134,-3.582004936659388e-08,-1.181383390755735e-06,32.981065399019364
161,166,1377,241,5959.657869459818,1.0234731902255306e-08,4.1893833859843685e-07,40.9330056321378
162,167,1496,349,3355.399229106236,2.309446687179331e-07,2.0674641404267073e-05,89.52205530026018
163,168,2666,438,3475.544511036398,-3.5139701415875976e-07,-4.7694100959362225e-06,13.572710933114026
164,170,1564,292,4714.5731181578285,-2.3212458478518006e-07,-3.9110337587249435e-06,16.848856239611216
165,171,831,565,5340.053327756575,2.9605836088393494e-07,6.332798329885719e-06,21.390371516541613
166,172,1738,468,4106.924428460283,-8.864671896565007e-07,-1.6785448461372502e-05,18.935216844152727
167,173,1293,474,7573.5110049873865,1.2262353093656027e-07,3.7617430802447268e-06,30.67717143287024
168,174,1251,399,5112.58593777926,-6.741122210607718e-08,-8.700414119833169e-07,12.906477360909346
169,175,1381,351,5890.646509860226,-5.830883900034725e-07,-1.0049130635356128e-05,17.234317828376383
170,176,733,474,8692.222658060835,1.0370595962465207e-07,1.5558533316151494e-06,15.002545053787879
171,177,605,392,4923.984255469392,5.195777338351699e-07,4.5019233579199785e-06,8.664580994820232
172,178,1937,438,7057.37028626209,-2.4088871514892844e-07,-1.9617364263287076e-06,8.14374565083247
173,179,1367,405,5275.546562700489,-2.7254488363145947e-07,-3.1517658412611793e-06,11.564208431529607
174,180,964,451,3630.7997654382243,-3.244221989847737e-07,4.285351990618898e-06,-13.209182368004432
175,182,1933,444,7987.160120845921,-1.2546233679308202e-07,-3.745083694860287e-07,2.9850262561559355
176,183,2179,389,6450.457671114349,7.84446329378734e-07,2.6141972496413008e-05,33.32538061222994
177,184,441,458,3693.2423880177203,-5.906220687058308e-07,-1.1802481283198524e-05,19.98313627030579
178,185,1176,448,7347.927507626054,1.286502458236619e-07,9.349094094847065e-06,72.67062752186006
179,186,1618,422,5570.252950308746,3.9540242891960834e-07,5.047333087827693e-06,12.765053319522973
180,187,1296,384,5764.198015361328,2.111770743563415e-07,2.380160606971542e-06,11.270923296130356
181,188,691,392,4172.624185243608,6.161387999083169e-08,1.1693488655297629e-06,18.978659771203585
182,189,1272,418,3669.2791936438475,9.604982187116907e-08,1.3445461495440476e-06,13.998424186017518
183,190,1482,418,3929.2628490333655,-1.202439438824573e-06,-3.052251738628382e-05,25.383829239766666
184,191,2038,450,7933.212259602586,-1.7385031401898022e-08,-6.976606321381875e-06,401.29960999783987
185,192,1296,574,3871.1804324707555,-2.2360600244396393e-07,-3.4183434484185393e-06,15.287351014985308
186,193,1641,475,4434.103864860624,-4.2806816640766696e-07,-6.369895132363348e-06,14.880562565115001
187,194,2986,393,5123.6548989994335,2.0615948508672074e-07,1.8770601481777645e-06,9.104893463369786
188,195,680,436,4578.779722956122,1.5429157261585833e-07,3.1865361787944165e-07,2.06526910366516
189,196,619,436,4380.883672142352,-6.929898526981698e-07,-1.9328101764746483e-05,27.890887131308105
190,197,627,392,3662.0475085189396,6.557186429017776e-08,4.3494824086221764e-08,0.6633153496100461
191,198,934,372,4554.867327824957,-4.6744373396819095e-07,-1.5053920512770346e-05,32.20477550308707
192,199,231,458,2399.8380949168545,-3.227258186751977e-07,-3.838649960014254e-06,11.89446191746314
193,201,828,566,3705.515040318229,2.4628037476316857e-07,1.7549026741838456e-06,7.125629380219267
194,202,608,436,4190.917533432392,-6.233435035646779e-07,-3.6327143884106984e-06,5.8277889600782045
195,203,1199,475,5882.650224895134,1.2912993382435132e-07,1.6895711554075486e-06,13.08427182891446
196,204,558,458,5586.304594790655,-6.761534361334341e-07,-1.2306821847151179e-05,18.201226510845558
197,205,4309,347,5667.39660372681,8.146552489256229e-07,4.880938947132861e-06,5.991416557580524
198,206,1037,349,3238.864035369118,8.310693794652561e-10,7.815121976670938e-06,9403.693806766778
199,207,1078,201,6845.43576402173,2.1320285759483335e-07,2.231967553353653e-06,10.468750646838147
200,208,1407,450,2901.8745364805773,-1.1143233525982348e-08,-2.2580981377010938e-07,20.26429880012793
201,209,560,399,3835.489227259651,-6.821699884931581e-08,9.080122549294291e-06,-133.10645004115952
