,TripId,TripId_raw,VehId,Aggressiveness,Distance[km],Fuel Consumed[L],Fuel Rate[gpm]
0,0,918,392,4492.834692549465,4.012388888888888,30.07325772332358,7.49510043919284
1,1,1736,450,4620.973845765705,2.97275,55.88679202862871,18.79969456854048
2,2,854,418,6394.647968865589,2.5909166666666663,51.25743882740139,19.783515034216226
3,3,1240,468,6054.3796297617855,5.838583333333333,85.18912932434623,14.590719094131778
4,4,2320,565,4832.069296161308,11.21113888888889,234.29542990426162,20.898450391731977
5,6,1175,201,6217.934981814081,7.881555555555556,160.7497483206131,20.395688032333123
6,7,4068,347,4532.232325106699,2.993888888888889,25.72380312154512,8.592103473516648
7,8,2358,349,4389.613443639151,17.718416666666666,1467.3725708498348,82.81623569731126
8,9,3265,125,5906.293169608594,1.447777777777778,28.73675948800148,19.84887455042312
9,10,3131,347,5189.347501619277,5.918277777777778,40.43558155311025,6.832322353124355
10,11,1000,349,3697.8810739785104,19.787277777777778,937.3850997980473,47.373120766050164
11,12,1377,353,4429.943108992377,3.7059166666666665,57.616864294749604,15.547263869420416
12,13,872,474,6409.282860947308,2.1904166666666667,43.84181228124805,20.01528428286006
13,14,2216,468,5763.372511827755,7.673805555555555,180.64146133647202,23.540010237253693
14,15,1100,475,4042.0974366237083,3.1382222222222222,75.1047142104749,23.932248544620947
15,16,1137,374,3957.189324694698,6.293861111111111,35.18943455889419,5.591072624206969
16,17,675,397,4177.740515615175,1.5903333333333336,74.24157186319252,46.68302569473433
17,18,1020,450,5584.830081405866,2.5796666666666668,27.4203333215611,10.629409479866041
18,19,2093,475,4281.334596643205,9.850666666666667,232.32471385398284,23.58466911078602
19,20,1136,452,4694.408943778889,4.6512777777777785,85.95339086444764,18.47952218100232
20,21,1508,351,8758.015815959741,1.3523611111111111,16.562784011173623,12.247308707040165
21,22,1093,450,4687.015983731785,15.818166666666666,296.6674972717691,18.754859745973665
22,23,1372,375,6108.025633201098,1.0013055555555557,12.492474577672084,12.47618622343593
23,24,1278,374,3543.761754796323,7.5766944444444455,54.557259441424094,7.20066776368787
24,25,2503,410,3869.4921179231933,6.674777777777778,4947.681512084635,741.2503721931935
25,26,1026,124,6870.378425402348,1.021777777777778,18.99814215149387,18.59322307127499
26,27,2239,351,4876.054505444501,7.813694444444444,131.91966608735964,16.8831360152757
27,28,1097,351,4254.834402859727,2.579888888888889,69.41180121453196,26.904957617933054
28,29,2845,125,4582.114557391895,1.8404166666666666,30.033206816281503,16.318699651137788
29,30,999,220,3298.301350208808,6.505166666666668,90.77388860069186,13.954121892960751
30,31,631,452,4481.763465760757,5.085944444444444,99.90264994463688,19.64289052621565
31,32,2381,410,5884.004386652044,5.319166666666667,2712.837141032366,510.01168247514323
32,33,1275,579,6375.105768688366,5.4166944444444445,41.31041352808969,7.626498771858754
33,34,1869,231,5199.283588825114,1.9696944444444446,35.303200173285795,17.923186143342715
34,35,1650,450,6408.951920078915,15.234472222222223,425.91050888095407,27.95702421903969
35,36,842,385,4949.175372374582,3.547055555555555,39.02289995496058,11.001491051878562
36,37,1830,450,8660.762906764652,9.457249999999998,217.7256926194125,23.02209338014883
37,38,1831,353,3504.185783556937,5.109888888888889,69.81448246374308,13.66262241348339
38,39,1023,574,4294.740171593499,2.1076944444444448,13.35600802987279,6.336785706807338
39,40,2063,351,3638.798867343533,2.579972222222222,70.83397035838786,27.455322870637744
40,41,1518,115,3058.2440752298226,4.940416666666666,61.22618381943619,12.392919049223824
41,42,719,448,5227.195264149252,1.8581666666666665,46.98249506929997,25.284327779693232
42,43,1061,374,4606.48024018786,9.427805555555556,656.6678592509227,69.65224891215175
43,44,980,399,5966.333773776233,4.519861111111112,33.89003154867869,7.498024986955307
44,45,772,220,4171.334917298089,7.914972222222222,62.54262568561953,7.9018124043472575
45,46,2640,565,7164.638052530428,0.26016666666666666,2.2443231416958347,8.62648228710763
46,47,252,376,4701.857611162478,3.965666666666667,41.50234745272857,10.465415008673254
47,48,1321,5,5791.0041022221585,5.748916666666666,38.83303342555365,6.7548436822393185
48,49,1353,383,4499.475529177612,3.098361111111111,26.32684182408029,8.49702177375934
49,50,2497,565,3998.9737537522124,6.496166666666666,156.87870837068022,24.149427873465925
50,52,1107,375,4307.36352829609,6.239083333333333,102.07558453068998,16.36067016212691
51,53,1183,450,5288.200145088007,11.640444444444444,274.9281779830286,23.61835746866536
52,54,732,220,4558.4042892402895,9.408555555555555,116.51173273061912,12.383594064215455
53,55,1045,375,4243.048927912452,11.787750000000003,131.55902769698056,11.16065641848364
54,56,1993,422,3324.999067059746,2.9774444444444446,20.571988163173568,6.909276914153155
55,57,2195,410,4375.4234040585125,6.30636111111111,475.499031229968,75.39990540538368
56,58,1112,411,6064.697237404845,5.046583333333333,87.607603485017,17.35978536336802
57,59,1527,384,6347.296626336008,2.1259444444444444,54.8166572636164,25.78461417788421
58,60,1967,292,4234.78195147759,3.675277777777778,56.127347986963166,15.271593436102137
59,61,767,458,4326.967847958733,1.8255277777777779,39.75919044806916,21.779559277081052
60,62,1278,564,5558.112006397827,8.752972222222223,211.73802817326623,24.19041472971906
61,63,725,242,3972.5061684878397,1.4184999999999999,10.475308468422284,7.384778617146482
62,64,1370,411,4638.3350544125815,6.644194444444445,126.67839889331674,19.066028237514796
63,65,1979,351,5700.515728202189,5.526166666666667,56.06898596577365,10.146090291481192
64,66,925,124,2678.818420629389,1.0362777777777779,17.859696990096545,17.23446876222258
65,67,1396,565,6891.771048041858,2.6279166666666667,41.177489761321915,15.66925248567823
66,68,1532,386,2913.9801740057146,6.047055555555556,125.77391950919875,20.799200264275335
67,69,1998,452,4903.5472299721005,3.3453333333333335,72.86734218738052,21.781788218627096
68,70,1427,451,6330.655266455369,3.39175,90.84545260330195,26.784241940974997
69,71,775,447,4390.243902439024,16.386333333333333,439.4338972212695,26.817097411741663
70,72,1673,351,5113.300282379384,7.810611111111111,149.08609391443827,19.087634987018294
71,73,2043,450,11058.28011083846,11.738805555555555,377.4480260374804,32.15386985082548
72,74,1921,231,4764.21568627451,8.16,125.54575379911029,15.385509044008613
73,75,1907,475,3810.1112168235945,1.6933888888888888,28.46607307298639,16.810121561423674
74,76,2320,438,4980.108499095841,8.264277777777778,27.981246736093738,3.385806659516441
75,77,2635,565,7166.589027842476,1.550388888888889,31.873373094870292,20.558308514267573
76,78,1544,450,4686.359061487178,3.008305555555556,83.11664640430047,27.629057244802045
77,79,2573,422,4263.531843431081,11.6115,128.09378173675788,11.03163086050535
78,80,645,452,4132.821750900639,6.638805555555555,124.72361013715688,18.787055757761177
79,81,1009,532,5392.077793395857,1.2054722222222223,16.588447654484018,13.760953880715824
80,82,1088,292,5313.229701781306,3.74725,52.01480828384689,13.88079479187321
81,83,2178,389,5580.950060901339,6.841666666666667,219.10934096437276,32.02572584132123
82,84,1895,349,2556.1594772063213,1.7682777777777778,44.92819175412487,25.40788122700203
83,85,679,475,5553.849397814519,2.239527777777778,59.96458441590713,26.77554840396235
84,86,2491,410,2933.576128791955,2.013583333333333,1.677219428730907,0.8329525781058182
85,87,1759,351,5589.016767363712,6.381444444444444,89.42753079188091,14.013681631238631
86,88,2206,347,4619.35739197111,3.3690833333333337,36.85443831315339,10.939010605205189
87,89,1240,458,7041.763621528513,3.6767777777777777,108.14474697348894,29.412913564455604
88,90,2202,450,5526.437606530904,7.740972222222222,140.41876693271587,18.13968102476997
89,92,1064,447,11591.19707206131,2.9068611111111116,65.89437651516741,22.66856722644726
90,93,927,452,4781.170242934115,5.877222222222223,96.83695943344276,16.476654407807633
91,94,1256,353,2566.5414473616624,8.111694444444444,97.79440102609811,12.055976922685465
92,95,1788,475,4171.366997716187,11.652055555555556,180.22596645787536,15.467310947719078
93,96,2346,349,6075.321522410535,1.8078055555555554,47.43469490444861,26.23882571810744
94,97,2187,438,571.5815649137731,22.72116666666668,504.4585030881106,22.202139110584564
95,98,1417,452,3447.576248223904,5.043833333333334,114.42296851048494,22.68571559537751
96,99,879,220,2481.590833820721,7.884055555555556,58.667064522456386,7.441229213702866
97,100,1224,387,8909.219668114914,1.4513055555555556,25.063915384187286,17.26990935040753
98,101,587,428,5181.730053247537,1.9771388888888892,45.24838496428328,22.885789773581322
99,102,692,348,4556.9520472958175,6.343055555555556,83.73437068958025,13.20095180567063
100,103,785,448,8198.260347930416,1.111333333333333,40.16643917105551,36.14256674060184
101,104,766,418,4829.537903605447,14.33863888888889,184.87283686615302,12.893332365697017
102,105,516,451,5166.897553097706,3.7496388888888887,87.59263009418794,23.3602842006324
103,106,1454,437,4047.7715240349235,2.793388888888889,35.518861798238724,12.715330092247509
104,107,834,242,3478.005244112829,8.920055555555557,132.22076067273392,14.822862912595276
105,108,2367,422,5758.304547697582,3.2085833333333333,93.82172151476937,29.24085547041094
106,109,1845,452,4065.3282936876176,6.136527777777777,219.01293451950897,35.6900420646055
107,110,887,374,3721.0477732548457,7.342555555555556,121.1705692397307,16.502506289931997
108,111,2279,347,6160.12213740458,0.9097222222222222,7.313870301526919,8.039674224579208
109,112,40,605,4919.478991887358,1.605861111111111,34.81744675104827,21.681480739612496
110,113,917,456,3822.9756487303302,0.7996388888888888,6.510501356902668,8.141801815003165
111,114,956,430,6480.050813964431,2.361555555555556,52.28587426000894,22.140437957094214
112,115,1058,385,4131.707409012948,4.4214166666666666,99.90196191724792,22.595011836458433
113,116,608,574,4311.908410709456,4.622083333333334,22.07821006494572,4.776679361387336
114,117,1236,468,5992.275398824518,7.44375,130.441198491634,17.523586699127993
115,118,2295,381,6233.44393436662,7.333666666666667,109.95641389188731,14.993374922760871
116,119,583,532,2643.7467111033156,4.750833333333333,18.806161694972175,3.9584974625445737
117,120,2414,565,7873.690682711523,1.2649722222222222,25.80250274638241,20.39768327960137
118,121,950,349,5825.407005636279,6.539972222222222,980.9622271207912,149.99486141356567
119,122,911,383,4543.748872451741,2.7714999999999996,54.925938801640825,19.81812693546485
120,123,1870,422,5440.817343633192,1.1147222222222222,14.013908213108648,12.571659498427893
121,124,1898,383,5045.222596578456,6.793555555555555,45.7862248847361,6.739655620729203
122,125,1569,349,6186.51318826752,1.8050555555555556,9.393148298143537,5.203800109771434
123,126,452,368,6846.922333225911,6.2059999999999995,103.78486808967646,16.723311003815095
124,127,920,384,5345.378220429665,4.049666666666667,27.556177167216273,6.804554407905902
125,128,1679,452,4900.621602642462,1.0680277777777778,23.285783466025418,21.8026009721167
126,129,1631,410,3833.244897797559,3.507472222222222,467.0166896133861,133.14907717715275
127,130,1521,405,8972.284076372767,1.172611111111111,19.590955390932386,16.707120719987824
128,131,544,407,3765.4679545751214,3.4048888888888884,38.31215055599859,11.25210008497544
129,132,1294,375,7829.638115775995,1.2365833333333334,27.000250044804154,21.834557620975122
130,133,1312,477,4361.312442489254,6.611083333333334,63.911186214016354,9.667278869678396
131,134,1943,549,5527.547994381146,2.1356666666666664,44.666319533511285,20.914462088424205
132,135,785,385,4295.892913607139,1.581277777777778,57.66749871675184,36.46892375721227
133,136,1528,418,4958.212861795051,2.7380833333333334,77.00493284103517,28.123662966564872
134,137,2481,422,4394.60596474636,5.1105833333333335,135.76626654050028,26.565708390855633
135,138,3167,347,5699.440341125409,5.83688888888889,57.9123024831952,9.921775724296747
136,139,1953,411,5092.35292899592,5.36588888888889,54.835922412558666,10.219354807384672
137,140,1158,272,5687.755403475949,1.6925833333333333,25.388820973529825,15.000041932074142
138,141,2348,458,5004.244482173174,1.8324444444444445,21.051362967802774,11.488131622012185
139,142,1487,450,5851.645535602883,14.470972222222223,492.0999072428825,34.00600178661069
140,143,1592,369,5886.87218287186,2.760888888888889,67.14933545274505,24.32163631176374
141,144,2475,410,3341.013633914881,1.3406111111111114,213.98419523480572,159.61690415757747
142,145,1154,565,2565.5967328436286,20.099027777777778,419.428957018385,20.868121665174325
143,146,991,474,4210.1011292272315,1.8842777777777775,47.86618647966134,25.402935301881186
144,147,1265,201,4279.670908418026,8.781749999999999,208.90457888757635,23.788490777758007
145,148,1614,231,4683.705331328784,1.2009722222222223,23.326871286949903,19.423322917316906
146,150,872,564,5219.241224441556,8.460999999999999,155.15053645819364,18.337139399384668
147,151,2458,450,5347.282146379439,12.702527777777778,343.4392072534472,27.03707586881023
148,152,2028,353,4948.01998657618,2.2348333333333334,93.87041672808658,42.00331869405022
149,153,1019,385,5177.23638151656,2.3726944444444444,60.75885587875608,25.60753493608086
150,154,511,436,4095.630945365771,5.939500000000001,28.093661236224875,4.72997074437661
151,155,274,574,5530.9508123786145,3.2466388888888886,314.90028509140524,96.9927041067308
152,156,458,428,5719.105162735393,2.0090555555555554,38.76788985539701,19.296574327272246
153,157,875,440,4261.178583980943,0.7113055555555555,13.138176601747736,18.47051031604321
154,158,2061,458,6217.163303676168,5.185805555555556,88.58038701950164,17.08131669622773
155,159,1509,477,6032.332611376519,5.360944444444445,142.46216932707375,26.574080519470318
156,161,1183,565,4513.307487260778,7.430027777777777,175.17157994698758,23.57616757112301
157,162,1600,383,4517.235759106837,1.3634444444444447,21.063067538124777,15.448423750560098
158,163,145,574,5344.706778370144,4.376666666666667,41.305885818736854,9.437749996664932
159,164,1547,338,4942.752457442058,4.541194444444445,84.83444850473256,18.681087000913685
160,165,1434,565,5588.242405924134,3.6761111111111116,90.35761446070681,24.57967447926133
161,166,1377,241,5959.657869459818,1.8219166666666666,11.611431616185902,6.37319578256556
162,167,1496,349,3355.399229106236,21.958638888888892,1476.085640261722,67.22118104545285
163,168,2666,438,3475.544511036398,3.800555555555556,55.94284555857509,14.71964946724677
164,170,1564,292,4714.5731181578285,3.1894722222222223,41.95929030299268,13.155559095529009
165,171,831,565,5340.053327756575,2.6565277777777783,55.093033570076834,20.73873799887871
166,172,1738,468,4106.924428460283,10.782277777777779,324.3898185130399,30.085462941940314
167,173,1293,474,7573.5110049873865,1.4425277777777779,52.34905400174315,36.28980655220876
168,174,1251,399,5112.58593777926,2.3313055555555557,34.30941980459706,14.716826682301216
169,175,1381,351,5890.646509860226,6.578055555555555,91.79459575938252,13.95467018849614
170,176,733,474,8692.222658060835,0.7789722222222223,12.704051428106485,16.30873485047368
171,177,605,392,4923.984255469392,4.248388888888889,33.99740303442744,8.002422547366896
172,178,1937,438,7057.37028626209,3.535027777777778,32.09165824562408,9.078191251384688
173,179,1367,405,5275.546562700489,2.8143055555555554,36.510593304423836,12.973215801798926
174,180,964,451,3630.7997654382243,9.237083333333334,234.86003724215652,25.425778762288584
175,182,1933,444,7987.160120845921,1.029777777777778,4.201344959334013,4.079855916487496
176,183,2179,389,6450.457671114349,6.099722222222223,195.7658883761045,32.09423007213334
177,184,441,458,3693.2423880177203,5.925416666666666,100.01153748119503,16.878397437231424
178,185,1176,448,7347.927507626054,0.9288333333333334,50.916143742530984,54.81730889201254
179,186,1618,422,5570.252950308746,4.759388888888889,204.68046078851998,43.00561806713466
180,187,1296,384,5764.198015361328,2.9728333333333334,29.692996775771412,9.988113508697005
181,188,691,392,4172.624185243608,2.799916666666667,63.371413073304026,22.63332113692813
182,189,1272,418,3669.2791936438475,1.5488055555555558,37.32491901044651,24.099163950285597
183,190,1482,418,3929.2628490333655,13.329472222222224,321.67516992951994,24.1326261510369
184,191,2038,450,7933.212259602586,9.391277777777779,239.12991362874368,25.462979510050022
185,192,1296,574,3871.1804324707555,1.5672222222222223,25.330575941963254,16.16272126747035
186,193,1641,475,4434.103864860624,8.498222222222223,181.30974024261667,21.335019901986687
187,194,2986,393,5123.6548989994335,2.6485000000000003,21.04363912690451,7.945493346008876
188,195,680,436,4578.779722956122,1.1249722222222223,4.3105911208991685,3.831731162556361
189,196,619,436,4380.883672142352,5.8524722222222225,262.9656407421724,44.9324030524527
190,197,627,392,3662.0475085189396,2.812361111111111,67.61786280644631,24.043094088913698
191,198,934,372,4554.867327824957,4.834388888888889,232.168264115924,48.02432519434412
192,199,231,458,2399.8380949168545,2.4705833333333334,29.073390132774175,11.767824116885016
193,201,828,566,3705.515040318229,1.801638888888889,18.913880063118224,10.498152642998752
194,202,608,436,4190.917533432392,5.982222222222223,33.77280754796044,5.64552875058774
195,203,1199,475,5882.650224895134,1.6489166666666668,21.0126112295885,12.74328269849204
196,204,558,458,5586.304594790655,8.117888888888888,133.88734427327225,16.492877163732366
197,205,4309,347,5667.39660372681,6.050750000000001,34.11114894575397,5.637507572739572
198,206,1037,349,3238.864035369118,4.762472222222223,72.74849137115368,15.275362873866468
199,207,1078,201,6845.43576402173,4.356333333333334,118.13948520750765,27.119018717768988
200,208,1407,450,2901.8745364805773,1.0861944444444442,24.530075239315668,22.58350276488669
201,209,560,399,3835.489227259651,5.503861111111111,153.2596479749028,27.84584219712677
202,210,156,220,3544.7902044724133,11.14113888888889,92.5616988593494,8.308100256398529
203,211,1698,5,4271.476032273374,4.506638888888889,136.13610202774692,30.207901139669797
204,212,2031,450,6162.770939123905,1.4058611111111112,27.96575330368326,19.89225897398979
205,213,546,436,4187.675638912373,5.881305555555556,58.223930681325044,9.899830935722424
206,214,1989,381,5629.033317136591,4.230388888888889,68.52975507997184,16.199398419366396
207,215,568,220,2976.0418840222324,5.857444444444445,69.30480962860295,11.83191924156205
208,216,4207,347,4490.400330819369,4.231916666666667,26.51307692290529,6.2650281211205225
209,217,1587,385,5394.860714561309,6.839472222222222,241.34752242867043,35.2874482982042
210,218,1602,450,6928.267361331724,1.7487777777777778,11.572429858429652,6.617438765224403
211,219,841,574,4881.030613383591,6.720916666666667,110.88193865943984,16.498038014572394
212,220,1931,338,5865.846024456793,5.812972222222223,84.8453752824123,14.59586800674183
213,221,2120,338,4118.8231527268845,1.561611111111111,10.28151251206062,6.583913522967419
214,222,1311,447,6591.176707799015,3.0997500000000002,52.33818555126622,16.88464732680578
215,223,1066,565,5024.629667957777,1.8789444444444448,55.30187943474639,29.432418610491553
216,224,1759,422,5889.924240424465,7.366138888888889,65.8330166705576,8.93724889845077
217,225,2376,410,3748.9168728670898,3.019805555555556,12.080197119419294,4.000322834427295
218,226,1962,351,5388.143043839848,2.10425,25.487876434690676,12.112570481022063
219,227,1498,405,6964.374482187241,4.023333333333333,70.16501386053733,17.43952291479801
220,228,1686,231,5618.266245560038,3.104694444444444,78.89229713391083,25.410647825611665
221,229,1000,298,5148.153251868085,18.746916666666667,453.7818281908757,24.205677992783293
222,230,472,566,3605.4545783808912,13.804916666666667,313.29164133089387,22.69420735348352
223,231,984,549,5155.663572253875,2.788777777777778,62.684109134488025,22.47726930197985
