,TripId,TripId_raw,VehId,Aggressivity,Aggressiveness,Distance[km],Fuel Consumed[L],Fuel Rate[gpm],Weight,Displacement,SpeedAverage,SpeedVariance,Air Temperature[F],Precipitation Level[mm],Normalized PKE 1,Normalized PKE 2
0,0,2265,123,475.64550767866587,5748.696207257881,9.225222222222222,0.8956464370286306,0.0970867059300911,2500.0,1.8,46.42372881355932,147.49413298565838,6.4,0.0,60.70073197088463,11.020073363761794
1,1,1239,135,269.5409589040229,6372.9668956901905,2.2236111111111105,0.4419009053301478,0.1987312003983176,3500.0,2.5,40.74816983894583,447.76640060454355,-6.47,0.0,70.81810848004555,10.87364657764479
2,4,2263,575,266.1127698959285,5665.167275794208,6.323555555555558,1.0089584843267394,0.1595555657671607,4000.0,2.4,32.92909535452323,247.0709406011794,1.52,0.0,94.30844933002913,15.352538263028
3,7,1681,522,552.5857671587262,5891.6116489124715,2.7432222222222222,0.3440747685304918,0.1254272314299658,3000.0,2.4,33.915,447.276871088861,8.92,0.0,361.84225164089446,63.481096779104284
4,8,1375,250,529.2458070194801,5535.915731036814,4.683416666666666,0.9374687572589542,0.2001677031922466,5500.0,5.3,33.196768060836504,319.06781066737085,12.23,0.0,112.15119554795535,17.818414245936832
5,9,1072,557,620.7815608459207,5729.848916485124,3.1494722222222222,0.5836438592618995,0.1853148140643351,4500.0,3.5,23.6734693877551,535.8638262322471,9.68,0.0,137.92350067884956,17.60725540581058
6,10,2993,531,356.6998742998871,7141.713442315003,1.2421388888888891,0.1477156845856105,0.118920425007983,2500.0,1.5,38.459619952494066,470.21061483755625,6.71,0.0,70.12027053593539,10.710012502606846
7,13,177,571,527.0606060291935,3525.5020048991314,16.023249999999994,2.389009290819418,0.1490964249337318,3500.0,2.4,11.297842727905357,263.4223699947468,-0.62,0.0,186.44624223238364,16.083222173400504
8,16,1431,244,247.8925683406021,6063.064833005894,1.1311111111111112,0.2729202799698332,0.24128511981615902,3500.0,2.5,33.97196261682243,429.87733644859816,-10.11,0.0,310.8294368064764,27.926082213081866
9,17,673,591,718.4606969403712,8425.226586102719,1.3239999999999998,0.1420516548235512,0.1072897695041927,2500.0,2.0,58.18731988472622,243.44168846096184,6.73,0.0,36.767392533406436,4.818518679591727
10,18,1063,195,121.01145145275528,5444.528046926585,1.8089722222222224,0.2789974713881643,0.1542298261746835,3000.0,2.0,22.10738255033557,172.85325594050425,1.21,0.0,25.418167263816326,3.5513325893417136
11,19,2122,415,216.56298072419608,3787.089348548128,12.670416666666664,1.2234567543915218,0.0965601042632001,2500.0,2.0,52.25449101796407,949.1392440344538,0.87,0.0,89.74993720026808,11.586972198721698
12,20,1869,575,438.5141484573688,4443.375745730746,14.624916666666667,1.620187653547242,0.110782693021424,4000.0,2.4,30.494505494505486,689.3232219469453,23.62,0.0,67.12409734536016,10.895895561070487
13,21,2082,465,349.04654730032166,4720.878832308466,7.6161666666666665,1.0565875163911849,0.1387295686444867,4000.0,3.5,36.22602739726028,427.01914988604057,20.5,0.0,45.48660378621044,7.03591971727
14,23,1558,273,588.4459335854951,4289.891041162227,16.52,1.5363799713259831,0.0930012089180377,3000.0,2.0,41.81723237597911,559.5710965147697,7.49,0.0,70.04953798462724,10.129712600718154
15,24,3121,366,502.1080095420001,4833.408362683049,9.44075,1.2481394104715078,0.1322076541028528,4500.0,3.5,55.13580246913581,673.6719030692199,8.24,0.0,39.98699609882965,4.993535814858689
16,25,1478,156,506.11455779795165,4055.3601873256102,19.502583333333327,2.469738089946536,0.1266364587569955,4500.0,3.5,27.41060903732809,349.1173701301837,-6.92,0.0,139.84806629834253,22.925912507925005
17,26,3106,157,390.70621313840417,5891.119904297415,3.018611111111112,0.3874785611273277,0.1283631931589564,3500.0,3.5,87.44354838709677,1601.5412790192156,15.05,0.0,43.18081247020092,5.428801567785375
18,27,1951,185,171.06672885427506,3477.377930416605,1.67425,0.1913077580204541,0.1142647501988676,2500.0,1.5,42.265,523.5123366834172,20.93,0.0,200.48241636766087,29.209358676083042
19,28,1736,337,384.1399713819943,4321.262806664813,3.8960833333333333,0.518532295065814,0.1330906581564769,3000.0,2.5,37.729662077597,592.0521391087228,13.39,0.0,45.83643658939247,6.872029473672034
20,29,1838,291,427.7201816423426,2984.6693358587518,2.962472222222221,0.2146957090737144,0.0724718049550743,3500.0,2.5,39.259526938239155,371.76231877672285,23.81,0.0,109.73765807515568,18.336626670655836
21,30,783,145,486.7644394461877,7227.3583444092,3.4066388888888888,0.5611024961420279,0.1647085336729181,3500.0,2.4,37.53880266075389,586.0297432398746,9.26,0.0,267.72942697113314,28.685295746907123
22,31,160,584,590.3561454581228,3745.826851630431,11.26747222222222,1.2578693264793401,0.1116372245407903,3500.0,2.5,45.54621848739496,118.44300251746269,-5.57,0.0,295.62375932006745,44.084244810887256
23,36,10291,345,335.06347609623697,4904.012234616769,1.2351111111111108,0.1203364754888814,0.097429676088515,3500.0,2.5,35.66153846153846,786.489206917114,14.23,0.0,52.95333094308993,8.845477403586129
24,37,7054,299,244.48636999208858,4428.939410908277,0.9921111111111108,0.1051868830690315,0.10602328901571101,3500.0,2.5,30.76111408677022,507.6213595298497,22.47,0.3,178.49288037971309,30.192825536866888
25,38,759,562,281.47027432733245,5120.208092118829,5.254083333333333,0.7209277001576301,0.1372128408363584,3000.0,2.4,97.63157894736842,623.0358037952022,12.05,0.0,149.6399917712405,20.252028961521273
26,39,1241,156,309.9846990829272,3665.699508010597,3.9635,0.6056283607458732,0.1528014029887405,4500.0,3.5,30.453118870145158,696.2102228041531,-10.76,0.0,75.16234139561463,12.64636220307167
27,40,4529,597,474.1301736747447,4074.0336667836077,27.395944444444453,3.104664182033713,0.1133256854250666,3000.0,2.0,38.45384615384615,285.40441677782724,14.57,0.0,39.80266968496065,6.39206166330677
28,44,390,577,340.28241049561296,2351.8469306404463,1.2543333333333333,0.1516577999331123,0.12090709534927901,3500.0,2.4,41.00909090909091,448.0638439186384,23.1,0.0,142.0267011703817,23.120625771922604
29,45,1761,367,318.9122520267175,4450.4001829407725,7.8956944444444455,1.0261511006329604,0.1299633753374257,3500.0,2.5,37.6970588235294,584.465478049627,11.67,0.0,51.9833141829445,5.081871854951804
30,47,386,557,349.2121781304553,5354.512031179176,7.1700277777777774,1.326105098421995,0.184951180040337,4500.0,3.5,31.38810198300284,541.4378156832016,22.9,0.8,25.867089906892076,3.2186890281871388
31,48,1194,400,328.0101980782426,5367.651114813058,2.517861111111111,0.3379610786089011,0.1342254650653711,3500.0,2.5,28.92831541218638,759.1818931951213,-5.0,0.0,234.7289247247127,31.380872289400095
32,49,1226,208,385.2953901819141,5387.587275417879,8.390583333333334,1.1415612806982869,0.1360526718283337,3500.0,2.5,33.5282738095238,397.84134444917214,12.55,0.3,72.32142455651235,8.80337833584665
33,50,2064,531,285.3079407785588,8598.90990702148,1.299583333333333,0.1783009241582491,0.1371985309329265,2500.0,1.5,46.228706624605685,584.3662520370176,19.51,0.0,50.057450355909054,6.799711464530999
34,51,1356,562,513.9341814639998,6171.301993600789,2.4829444444444446,0.3142828283424296,0.1265766654770038,3000.0,2.4,34.15412186379928,460.0049291197725,13.81,0.0,146.23556965022073,19.57484003191931
35,52,439,283,332.3604682772978,5101.80845920854,2.8154722222222226,0.263525930123436,0.0935991937847775,2500.0,1.5,47.05769230769231,781.6665421956683,21.94,0.0,45.07326396262476,6.698194025405536
36,54,392,597,421.72672225943427,6023.5120556913025,3.615166666666667,0.5336692617095364,0.1476195459064689,3000.0,2.0,50.00429184549356,542.2537449813099,26.05,0.0,185.63000820770853,25.583622926062393
37,55,1038,340,485.2912076387948,6095.398750987007,6.191555555555558,1.0811926655774182,0.1746237526056414,3500.0,3.5,26.548000000000002,170.6021044176707,8.45,0.0,24.534232572401255,3.093955709539354
38,56,1431,531,421.16239502728035,5473.591014688935,7.592638888888889,0.5958281076523158,0.0784744429929696,2500.0,1.5,33.97196261682243,429.87733644859816,-10.11,0.0,23.660004979782613,3.2167156528758967
39,57,2855,531,406.01364805666384,6018.979240536126,5.664083333333334,0.6508898327128139,0.11491529951233301,2500.0,1.5,62.595,201.448216080402,7.14,0.0,26.671440001552767,4.316764855742645
40,58,627,522,347.65281830286455,4413.429425206538,5.689,0.6527551341760268,0.1147398724162466,3000.0,2.4,53.052356020942405,453.9132621511316,8.11,0.0,16.530542443278193,2.3615060633254563
41,59,2096,135,316.92054247713764,5007.3270132808975,5.057388888888889,0.5629381830112595,0.1113100446453777,3500.0,2.5,42.18250950570342,552.7680898615506,7.54,0.0,34.83718812506088,5.158817056846994
42,62,1468,575,383.14963151396415,4668.00588196961,9.803972222222225,1.110034365985841,0.1132229203454673,4000.0,2.4,46.03636363636364,410.0958410011042,-8.53,0.18,58.43852713928929,10.146469547261217
43,64,1824,531,369.23173391513086,6102.610036036411,5.334111111111112,0.5215906253311233,0.0977839820855314,2500.0,1.5,37.055779569892465,535.746045928513,17.73,0.0,142.15758288036824,8.445004923586232
44,65,2689,185,255.53234330212865,4509.523543211367,9.437138888888887,0.9588813064549284,0.1016072050803339,2500.0,1.5,36.84,524.3508641975309,5.08,0.0,182.8420975645433,28.52855422992874
45,66,1487,308,335.35160513749463,5153.5601180601925,6.4468055555555575,0.6402686079547701,0.09931563817727,3000.0,1.8,89.44765342960291,557.4231138326555,-7.56,0.0,31.418755371435747,5.151214543456326
46,68,509,414,511.2926244197187,5428.117265171811,26.16008333333333,2.8380157212403967,0.1084864939105212,3500.0,2.4,46.97988165680474,605.9367985641773,24.63,0.0,23.62313221722395,3.398033978311846
47,69,1202,591,478.9722583128386,6467.308385106907,4.395027777777779,0.5262635263560715,0.1197406598922935,2500.0,2.0,41.796875,839.0644607843138,13.88,0.0,73.2433917638828,11.3209926379772
48,70,595,503,261.9205511883189,1909.071935438987,1.5971111111111111,0.1316480374017001,0.0824288532499861,2500.0,2.0,40.83673469387755,1061.1834641548928,22.17,0.0,20.10060788410522,2.697324219742061
49,71,2390,135,333.3064429605267,4752.386232524686,1.853805555555556,0.2213558018633393,0.1194061595079223,3500.0,2.5,52.05732484076433,815.3513359516493,4.89,0.0,25.33050097795844,3.3597174071986764
50,73,2044,415,217.50112384138828,4601.847782253497,12.260944444444444,1.5117462967853614,0.1232977038298504,2500.0,2.0,48.7251655629139,172.1933180788101,18.69,0.0,58.53114958018037,8.627707140797106
51,75,1497,530,659.4523497480112,5583.86470861324,7.000527777777778,0.8852587262530028,0.1264559979410604,3500.0,2.5,23.367413887370148,472.63736207203897,11.67,0.3,150.64915531186116,18.760083491665732
52,76,781,149,461.1970470571959,4786.088452108769,6.718638888888887,0.7603757695995451,0.1131740791809833,2500.0,1.8,46.95075757575758,828.7224282674948,5.16,0.0,134.0245221781464,22.180114585820007
53,77,818,547,490.57184655727815,5001.156686537948,5.6195,0.4566376789919717,0.0812594855399896,2500.0,1.6,30.98675496688741,871.1161030560384,4.5,0.0,50.78852904350428,7.964268050523808
54,79,1161,139,208.06305801302884,5112.756308384046,0.7166388888888888,0.078378040889077,0.1093689473238022,3000.0,2.0,31.732532751091703,445.1207328131338,-7.48,0.25,42.810854262503135,5.897413597385635
55,80,8619,488,365.63730565855406,4119.30388219545,18.675,2.073121713501571,0.1110105335208338,3500.0,2.5,35.941176470588225,119.2836342457775,0.49,0.0,74.43721072894014,9.824200400773828
56,81,2396,415,451.613133388218,2723.7687366167024,1.5566666666666666,0.1363520756085605,0.0875923397913665,2500.0,2.0,40.21280276816609,526.906109635209,6.77,0.0,34.36381269878409,5.305915121366662
57,83,952,416,379.31790943707983,5133.2053495087675,5.165583333333333,0.6944630035257386,0.1344403833434246,3500.0,2.4,52.4957264957265,108.21765399351608,8.64,0.0,66.1116230624714,8.731723800703769
58,85,973,276,162.87169192648162,1786.555772394274,2.718638888888889,0.2175489732158206,0.0800212834830495,2500.0,2.0,36.94715447154472,468.10718129584546,12.05,0.0,30.050964947621402,4.277485617544376
59,86,1282,240,567.9224115004081,2414.00217354001,14.569166666666666,2.288423290666889,0.1570730394554863,4500.0,3.5,43.638665132336016,367.9153696446469,-7.48,0.25,28.9901270819083,4.63658406218961
60,87,1352,562,249.43830959131802,3862.7353550488106,3.6336944444444437,0.4060726489276775,0.1117520075328628,3000.0,2.4,40.74710743801653,620.8349460894314,-8.01,0.0,37.183588670238954,4.916537189502702
61,88,2237,133,254.03119789203203,3569.941540662539,4.504555555555556,0.602146500261072,0.1336750080745331,3500.0,2.4,43.92647058823529,902.8285218146301,9.75,0.35,26.49484593746701,3.880212921164523
62,89,2799,324,474.43292199649636,6050.124935175145,5.891944444444442,0.5761325141930946,0.0977830866576371,3000.0,1.8,40.7575,607.8660262828536,4.05,0.0,34.100962795871666,5.50466978100254
63,91,1314,531,228.7249905404866,4344.327091938954,5.61513888888889,0.6158677338798494,0.1096798754343396,2500.0,1.5,36.679012345679006,445.21833965885793,-7.88,0.0,187.75098333985457,19.09332033964623
64,92,1896,135,627.7574082097658,5479.718954764348,3.518611111111112,0.3786677937853346,0.1076185409037028,3500.0,2.5,47.6945205479452,538.1685570400438,26.67,0.0,31.499738723830582,4.0258202661676155
65,93,519,557,435.3305177713002,5336.520347600624,5.485222222222222,1.0465070131756846,0.1907866209933996,4500.0,3.5,38.463815789473685,438.76310370241913,26.6,0.0,456.6602351741963,50.740026130466255
66,94,1842,145,340.6710772683398,7853.767275969682,1.4953333333333334,0.2857585533138632,0.1911002362776615,3500.0,2.4,35.68728121353559,361.06564411825656,20.25,0.0,32.27184568532433,2.76122743831652
67,95,924,276,434.4696252990352,2587.2885174079884,3.5759444444444446,0.2734536833417163,0.0764703388405688,2500.0,2.0,70.01828822238478,1166.9374398202347,18.06,0.0,58.97096041078027,7.262002543167304
68,96,246,597,439.2052304210505,4112.969848873353,20.214833333333328,2.483060092761232,0.1228335674015565,3000.0,2.0,45.610271903323266,312.23250022887487,0.24,0.0,63.958496203508645,7.093578669843686
69,97,1964,340,361.9584482438604,5767.876134307536,4.022277777777778,0.6016799709084393,0.14958687692645,3500.0,3.5,44.07905686546463,478.3476665630375,20.75,0.0,158.8801430499798,13.194198730794172
70,98,789,8,286.5564427759538,7687.584650112866,0.6152777777777778,0.0831866995004179,0.1352018592331849,2500.0,1.5,42.81750465549348,449.5398237767722,6.51,0.0,60.2742279497428,7.972781474833704
71,99,877,138,449.43897142160597,3615.639426003672,16.74613888888889,1.6644826009463607,0.0993950075292131,2500.0,2.0,35.44672131147541,399.31813735411185,7.42,0.0,63.051397633490666,8.184002252244674
72,100,1111,248,306.9316196372678,5722.75373529292,2.0469166666666667,0.2814942924417353,0.1375211297195303,4000.0,2.4,23.114864864864863,152.90201557489692,13.36,0.0,51.62046533434918,7.192401556019624
73,101,2194,502,158.3581170218818,3475.106463623999,2.4917222222222217,0.2474659564509647,0.0993152263297889,2500.0,2.0,46.17931034482758,987.2176245210727,2.45,0.0,41.66884753138576,6.726809466950168
74,102,1062,575,318.0630308566358,5374.412721358872,2.7670000000000003,0.4882176772223946,0.1764429624945408,4000.0,2.4,40.6460843373494,603.9363949008705,3.49,0.0,59.125084087097804,8.233862381256909
75,103,1011,413,375.94605393679655,5944.724747216831,2.719722222222221,0.4612798863122575,0.16960551432173698,3500.0,2.4,38.46844660194175,570.3999752267929,4.01,0.0,37.78073891337328,5.784610742717439
76,104,410,557,854.2023572257698,2298.581510726015,3.1802222222222216,0.3779238960790233,0.1188356880969607,4500.0,3.5,22.08509090909091,522.8046885148318,27.46,0.0,140.1035819981631,16.1852513499683
77,105,869,267,269.6221497261272,4549.656066799639,7.325388888888887,0.8489406382227034,0.1158901801801092,3500.0,2.5,34.92090395480226,522.3416840473394,3.14,0.0,29.972608178686755,4.291019254860429
78,107,2104,154,587.5569190417775,6533.65904449161,0.6936388888888889,0.1038595728104279,0.1497314733561093,3500.0,2.5,69.31857142857143,926.2202554669935,5.77,0.0,21.684389384692786,3.287261156722044
79,108,1263,291,356.5363685893013,3475.0537304267737,4.342666666666667,0.3888985228779356,0.0895529297385482,3500.0,2.5,28.206318504190847,553.7432116636509,-8.65,0.0,26.36780796385809,3.9901727095749853
80,109,779,527,190.95749421050618,3149.0331915639936,1.2670555555555554,0.1557648488496184,0.1229345060417035,3500.0,3.0,17.193637621023512,517.9777034367567,13.89,0.0,111.39638142990907,16.474112746676692
81,110,1693,268,520.8450643920918,6392.761315912273,7.619555555555554,0.8900644652899434,0.1168131735244034,2500.0,2.0,24.86361323155216,443.5261956955478,4.03,0.0,24.877805470182594,3.7077498537291365
82,111,1225,195,267.11171148708024,4212.296233525857,6.2281944444444415,0.564222694920353,0.090591695547277,3000.0,2.0,76.75192472198461,1255.839090898438,-8.54,0.0,346.7707472721575,33.16937582603246
83,112,1162,156,655.9199142092559,3393.2491295998493,7.116777777777778,0.94130627502446,0.1322657956194304,4500.0,3.5,31.53333333333333,452.89545598983165,-6.6,0.0,154.6433547953104,28.29644364339722
84,114,1552,268,314.01759300854974,8889.259877573733,0.8985000000000001,0.12949819246292602,0.1441270923349204,2500.0,2.0,63.1139489194499,344.85313181628334,2.33,0.0,72.37435404002086,9.808978386376454
85,117,1418,140,391.2113154570479,5295.937617909697,0.6625833333333334,0.0654014118284809,0.0987066962572973,3500.0,2.5,28.633377135348226,374.32198976416066,13.36,0.0,44.71968765959667,6.063686462318193
86,118,1224,230,409.9243068553587,5044.0063306096445,7.757722222222222,1.2117427116946704,0.1561982598737034,3500.0,3.6,35.91858887381275,523.3330371364522,-5.48,0.0,49.553273965426925,7.865599042131257
87,119,1134,145,323.17032965346544,3886.4634911779053,1.5932222222222223,0.2066340512877088,0.1296956873972647,3500.0,2.4,31.557504873294352,461.56748751218316,12.62,0.0,57.00013033509943,7.354855527109604
88,121,571,490,288.7853514214371,8228.974987739088,1.4159722222222222,0.3661402174156032,0.2585786724269096,3500.0,3.6,32.25383828045036,254.46828699431182,22.82,0.0,33.08780258559932,5.000913128431836
89,122,1100,488,550.1190191853349,3275.018695288787,7.5776666666666666,0.837520104884063,0.1105248015946944,3500.0,2.5,48.43957968476357,621.7380096475865,-11.14,0.0,8.963056621980074,1.416762220407461
90,124,1298,176,380.427844312006,5209.029425373354,2.8216388888888893,0.3527493014418721,0.1250157498292698,3500.0,2.4,39.39669421487604,539.9413223140496,13.88,0.0,41.27172580749659,6.472348039057509
91,125,1714,156,316.37083205440103,5170.080098091502,5.573027777777778,0.8331308648204783,0.1494933989280573,4500.0,3.5,44.703821656050955,313.24426649844327,12.89,0.0,59.710775788586574,6.7195887283452125
92,126,2681,255,363.1761436568087,5861.3279386224385,1.4554722222222225,0.3193160510270794,0.2193900001331156,4500.0,3.5,13.146814404432133,32.09227454601416,-0.31,0.0,63.595163249956606,12.229839086530117
93,128,540,576,265.306318353265,4513.259090085832,6.28813888888889,0.6617048269111394,0.1052306316071307,,2.0,36.327217125382255,300.3803305754113,22.08,0.0,27.248784423920096,4.520182608279154
94,129,1213,324,213.40728844336968,6779.753761969903,4.2032500000000015,0.5565609087831167,0.1324120403932948,3000.0,1.8,38.22181146025878,239.3433011569796,-6.47,0.0,52.177020530969365,8.35575061883851
95,130,1640,484,303.290007575581,4605.913844674038,6.584361111111113,0.9862075332062432,0.1497802925088689,3500.0,3.5,53.139705882352935,265.471185153028,8.46,0.0,32.62543210191725,4.939473816956937
96,131,1055,145,332.016481489353,5371.6709326676955,5.2525555555555545,0.671112085462345,0.1277686791437206,3500.0,2.4,19.949860724233986,252.48909914255927,11.24,0.0,30.537794856984615,4.856613157978276
97,132,766,283,228.52058599756782,6500.7794973192895,1.4610555555555556,0.1646263060459072,0.1126762808025526,2500.0,1.5,66.00159489633174,1297.3051092733285,8.9,0.0,200.70220815537064,30.96548354397147
98,133,1029,216,203.49015399195716,3312.4136723537536,4.2835833333333335,0.5332542899128496,0.1244878991295098,3500.0,2.4,39.66,611.8983954154729,8.11,0.0,25.89179798446885,3.3807761699465697
