,TripId,TripId_raw,VehId,Aggressivity,Aggressiveness,Distance[km],Fuel Consumed[L],Fuel Rate[gpm]
0,0,2265,123,475.6455076786658,5748.696207257881,9.225222222222222,0.8956464370286306,0.09708670593009112
1,1,1239,135,269.54095890402294,6372.966895690192,2.2236111111111105,0.4419009053301478,0.19873120039831763
2,4,2263,575,266.1127698959285,5665.167275794208,6.323555555555556,1.0089584843267394,0.15955556576716076
3,7,1681,522,552.5857671587262,5891.6116489124715,2.7432222222222222,0.34407476853049185,0.12542723142996584
4,8,1375,250,529.2458070194801,5535.915731036814,4.683416666666666,0.9374687572589542,0.2001677031922466
5,9,1072,557,620.7815608459208,5729.848916485125,3.1494722222222222,0.5836438592618995,0.18531481406433514
6,10,2993,531,356.699874299887,7141.713442315003,1.242138888888889,0.1477156845856105,0.11892042500798304
7,13,177,571,527.0606060291935,3525.5020048991314,16.023249999999997,2.389009290819418,0.14909642493373182
8,16,1431,244,247.89256834060217,6063.064833005894,1.1311111111111112,0.2729202799698332,0.241285119816159
9,17,673,591,718.4606969403712,8425.22658610272,1.3239999999999998,0.1420516548235512,0.10728976950419276
10,18,1063,195,121.01145145275527,5444.5280469265845,1.8089722222222224,0.27899747138816433,0.15422982617468353
11,19,2122,415,216.5629807241961,3787.0893485481274,12.670416666666666,1.2234567543915218,0.09656010426320012
12,20,1869,575,438.51414845736883,4443.375745730745,14.624916666666667,1.6201876535472421,0.11078269302142409
13,21,2082,465,349.04654730032155,4720.878832308466,7.616166666666666,1.0565875163911849,0.13872956864448674
14,23,1558,273,588.4459335854951,4289.891041162227,16.52,1.536379971325983,0.0930012089180377
15,24,3121,366,502.10800954200005,4833.408362683049,9.440750000000001,1.2481394104715078,0.13220765410285282
16,25,1478,156,506.11455779795165,4055.3601873256107,19.502583333333334,2.469738089946536,0.12663645875699558
17,26,3106,157,390.7062131384041,5891.119904297414,3.0186111111111114,0.38747856112732765,0.12836319315895642
18,27,1951,185,171.06672885427506,3477.3779304166046,1.67425,0.19130775802045413,0.11426475019886763
19,28,1736,337,384.1399713819943,4321.262806664813,3.8960833333333333,0.518532295065814,0.13309065815647697
20,29,1838,291,427.7201816423426,2984.6693358587518,2.962472222222222,0.21469570907371444,0.07247180495507431
21,30,783,145,486.7644394461877,7227.358344409201,3.4066388888888888,0.5611024961420279,0.16470853367291813
22,31,160,584,590.3561454581228,3745.826851630431,11.26747222222222,1.25786932647934,0.11163722454079034
23,36,10291,345,335.06347609623697,4904.012234616769,1.2351111111111108,0.12033647548888146,0.09742967608851506
24,37,7054,299,244.48636999208864,4428.939410908277,0.992111111111111,0.10518688306903154,0.10602328901571105
25,38,759,562,281.47027432733245,5120.208092118829,5.254083333333333,0.7209277001576301,0.1372128408363584
26,39,1241,156,309.9846990829272,3665.6995080105967,3.9635000000000002,0.6056283607458732,0.15280140298874056
27,40,4529,597,474.1301736747447,4074.0336667836077,27.395944444444446,3.1046641820337135,0.11332568542506664
28,44,390,577,340.282410495613,2351.8469306404463,1.2543333333333333,0.15165779993311235,0.12090709534927904
29,45,1761,367,318.9122520267175,4450.4001829407725,7.895694444444445,1.0261511006329604,0.12996337533742572
30,47,386,557,349.2121781304553,5354.512031179176,7.1700277777777774,1.326105098421995,0.184951180040337
31,48,1194,400,328.0101980782426,5367.6511148130585,2.517861111111111,0.33796107860890107,0.13422546506537117
32,49,1226,208,385.2953901819141,5387.587275417879,8.390583333333334,1.1415612806982869,0.13605267182833378
33,50,2064,531,285.3079407785588,8598.90990702148,1.2995833333333333,0.1783009241582491,0.13719853093292653
34,51,1356,562,513.9341814639998,6171.301993600787,2.4829444444444446,0.31428282834242965,0.12657666547700386
35,52,439,283,332.3604682772979,5101.80845920854,2.8154722222222226,0.263525930123436,0.09359919378477752
36,54,392,597,421.7267222594343,6023.512055691301,3.615166666666667,0.5336692617095364,0.14761954590646897
37,55,1038,340,485.2912076387948,6095.398750987007,6.191555555555556,1.0811926655774182,0.17462375260564142
38,56,1431,531,421.1623950272804,5473.591014688935,7.592638888888889,0.5958281076523158,0.07847444299296968
39,57,2855,531,406.01364805666384,6018.979240536126,5.664083333333334,0.6508898327128139,0.11491529951233305
40,58,627,522,347.65281830286455,4413.429425206539,5.689,0.6527551341760268,0.11473987241624659
41,59,2096,135,316.92054247713753,5007.3270132808975,5.057388888888889,0.5629381830112595,0.11131004464537773
42,62,1468,575,383.14963151396415,4668.00588196961,9.803972222222223,1.110034365985841,0.11322292034546731
43,64,1824,531,369.23173391513086,6102.610036036411,5.3341111111111115,0.5215906253311233,0.09778398208553148
44,65,2689,185,255.53234330212865,4509.523543211367,9.437138888888889,0.9588813064549284,0.10160720508033398
45,66,1487,308,335.3516051374946,5153.560118060193,6.446805555555556,0.6402686079547701,0.09931563817727007
46,68,509,414,511.2926244197187,5428.117265171811,26.160083333333333,2.8380157212403954,0.10848649391052126
47,69,1202,591,478.97225831283856,6467.308385106907,4.395027777777778,0.5262635263560715,0.11974065989229353
48,70,595,503,261.92055118831894,1909.071935438987,1.5971111111111111,0.1316480374017001,0.08242885324998615
49,71,2390,135,333.3064429605267,4752.386232524686,1.8538055555555557,0.22135580186333936,0.11940615950792238
50,73,2044,415,217.50112384138828,4601.847782253497,12.260944444444444,1.5117462967853614,0.12329770382985046
51,75,1497,530,659.4523497480113,5583.86470861324,7.000527777777778,0.885258726253003,0.1264559979410604
52,76,781,149,461.1970470571959,4786.088452108769,6.718638888888888,0.7603757695995451,0.11317407918098336
53,77,818,547,490.57184655727804,5001.156686537948,5.6195,0.4566376789919717,0.08125948553998963
54,79,1161,139,208.06305801302884,5112.756308384046,0.7166388888888888,0.07837804088907703,0.10936894732380222
55,80,8619,488,365.63730565855406,4119.303882195449,18.674999999999997,2.073121713501571,0.11101053352083382
56,81,2396,415,451.613133388218,2723.7687366167024,1.5566666666666666,0.13635207560856052,0.0875923397913665
57,83,952,416,379.3179094370799,5133.205349508768,5.165583333333333,0.6944630035257386,0.13444038334342465
58,85,973,276,162.87169192648162,1786.555772394274,2.718638888888889,0.21754897321582067,0.08002128348304956
59,86,1282,240,567.9224115004081,2414.00217354001,14.569166666666666,2.2884232906668895,0.15707303945548634
60,87,1352,562,249.43830959131805,3862.7353550488106,3.633694444444444,0.40607264892767747,0.11175200753286287
61,88,2237,133,254.03119789203197,3569.941540662539,4.504555555555556,0.602146500261072,0.1336750080745331
62,89,2799,324,474.4329219964964,6050.124935175145,5.891944444444444,0.5761325141930946,0.0977830866576371
63,91,1314,531,228.7249905404866,4344.327091938954,5.61513888888889,0.6158677338798494,0.10967987543433959
64,92,1896,135,627.7574082097658,5479.7189547643475,3.5186111111111114,0.3786677937853346,0.10761854090370289
65,93,519,557,435.33051777130015,5336.520347600624,5.485222222222222,1.0465070131756846,0.19078662099339966
66,94,1842,145,340.6710772683398,7853.767275969683,1.4953333333333334,0.28575855331386324,0.19110023627766154
67,95,924,276,434.4696252990352,2587.2885174079884,3.5759444444444446,0.27345368334171627,0.07647033884056881
68,96,246,597,439.2052304210505,4112.969848873353,20.21483333333333,2.4830600927612316,0.12283356740155654
69,97,1964,340,361.95844824386035,5767.876134307536,4.022277777777778,0.6016799709084393,0.14958687692645
70,98,789,8,286.5564427759538,7687.584650112866,0.6152777777777778,0.08318669950041793,0.1352018592331849
71,99,877,138,449.438971421606,3615.6394260036723,16.74613888888889,1.6644826009463607,0.09939500752921317
72,100,1111,248,306.9316196372678,5722.75373529292,2.0469166666666667,0.2814942924417353,0.13752112971953032
73,101,2194,502,158.3581170218818,3475.106463623999,2.491722222222222,0.24746595645096475,0.09931522632978898
74,102,1062,575,318.0630308566359,5374.412721358872,2.7670000000000003,0.4882176772223946,0.17644296249454086
75,103,1011,413,375.94605393679655,5944.724747216831,2.719722222222222,0.4612798863122575,0.16960551432173704
76,104,410,557,854.2023572257697,2298.581510726015,3.180222222222222,0.37792389607902344,0.11883568809696077
77,105,869,267,269.62214972612713,4549.656066799639,7.325388888888889,0.8489406382227034,0.11589018018010921
78,107,2104,154,587.5569190417775,6533.65904449161,0.6936388888888889,0.10385957281042796,0.14973147335610934
79,108,1263,291,356.5363685893013,3475.0537304267737,4.342666666666667,0.3888985228779356,0.08955292973854825
80,109,779,527,190.95749421050616,3149.0331915639936,1.2670555555555554,0.15576484884961844,0.12293450604170353
81,110,1693,268,520.8450643920918,6392.761315912273,7.619555555555555,0.8900644652899434,0.11681317352440344
82,111,1225,195,267.11171148708024,4212.296233525857,6.228194444444444,0.564222694920353,0.09059169554727699
83,112,1162,156,655.9199142092559,3393.24912959985,7.116777777777778,0.9413062750244601,0.13226579561943047
84,114,1552,268,314.01759300854974,8889.259877573733,0.8985000000000001,0.12949819246292602,0.14412709233492044
85,117,1418,140,391.2113154570479,5295.937617909697,0.6625833333333334,0.06540141182848092,0.0987066962572973
86,118,1224,230,409.9243068553586,5044.006330609644,7.757722222222222,1.2117427116946704,0.1561982598737034
87,119,1134,145,323.17032965346544,3886.4634911779062,1.5932222222222223,0.2066340512877088,0.12969568739726473
88,121,571,490,288.78535142143704,8228.974987739088,1.4159722222222222,0.3661402174156032,0.2585786724269096
89,122,1100,488,550.1190191853349,3275.018695288787,7.5776666666666666,0.837520104884063,0.11052480159469445
90,124,1298,176,380.42784431200596,5209.029425373354,2.8216388888888893,0.35274930144187217,0.1250157498292698
91,125,1714,156,316.370832054401,5170.080098091502,5.573027777777778,0.8331308648204783,0.14949339892805735
92,126,2681,255,363.1761436568087,5861.327938622439,1.4554722222222223,0.3193160510270794,0.21939000013311558
93,128,540,576,265.306318353265,4513.259090085832,6.28813888888889,0.6617048269111394,0.10523063160713078
94,129,1213,324,213.40728844336968,6779.753761969903,4.203250000000001,0.5565609087831167,0.13241204039329485
95,130,1640,484,303.290007575581,4605.913844674038,6.584361111111111,0.9862075332062432,0.1497802925088689
96,131,1055,145,332.016481489353,5371.670932667696,5.252555555555555,0.671112085462345,0.12776867914372064
97,132,766,283,228.52058599756788,6500.779497319289,1.4610555555555556,0.16462630604590728,0.11267628080255261
98,133,1029,216,203.49015399195716,3312.4136723537536,4.2835833333333335,0.5332542899128496,0.12448789912950986
99,134,5501,466,257.66095194695674,6779.063759429576,1.075222222222222,0.22927508433095517,0.21323506861409494
100,135,1737,265,229.09383357273524,6166.85136445491,3.208444444444445,0.8007962837668098,0.24959019787717437
101,136,1148,319,284.03825245552343,2874.2744847127647,1.215611111111111,0.07172853061959536,0.0590061492231944
102,138,1556,291,211.31705817959383,3497.2023924368123,2.8794444444444443,0.2977494895905328,0.10340518642928016
103,141,1297,500,413.2334631494822,5224.2886663487525,3.1454999999999997,0.4806183378857241,0.15279552945023817
104,142,1448,480,598.9029799327276,7571.714503848297,1.3461944444444445,0.22254373341786426,0.1653132163308733
105,143,1501,163,243.43214294802573,7540.876777251185,1.1253333333333333,0.21580021544038352,0.19176559428944034
106,144,912,199,333.67404445165295,4200.76756389839,2.127944444444444,0.2557288905391537,0.12017648825691897
107,145,1097,584,509.7106366215537,4200.960154396687,17.271527777777777,1.7847755559172027,0.10333628726310852
108,146,1065,546,402.7689106051708,6213.14474277778,7.820194444444444,0.700029041395367,0.08951555442367239
109,147,3154,624,318.0877102591575,5074.891301400201,9.218916666666667,1.2790443525846222,0.13874128586163836
110,148,1670,480,341.2187011087048,4466.362515046589,7.476777777777778,0.7700075909496795,0.10298655568422396
111,149,1326,268,476.4855470328654,4876.018099547511,1.4733333333333332,0.12880422955992835,0.08742368522167084
112,150,270,563,290.2607963590332,5027.5435993635265,8.781027777777778,0.9169706565556504,0.10442634732078127
113,151,647,473,376.4059032184528,5144.898369893338,4.969,0.6405882038389186,0.12891692570716815
114,153,1195,400,272.2243935271573,4724.301226845225,1.2611388888888886,0.16077346491949568,0.12748275890623215
115,154,1490,484,322.0638378531682,5677.965170576278,1.011277777777778,0.17100195995745276,0.16909494474724768
116,155,911,208,350.1785512631445,7316.497370217209,1.3837222222222223,0.21450588113099933,0.1550209122077323
117,157,1658,522,442.621168545599,3224.083907161754,8.882833333333334,0.9256675710745117,0.10420859385044318
118,159,1031,265,486.36528823506603,5172.006021510578,9.189277777777779,1.4222323598933109,0.1547708529752646
119,161,2705,116,374.6212193183106,4667.774928855203,8.87275,3.6732054308704183,0.4139872565856604
120,162,1676,133,246.6661058643164,4865.752271371944,0.7918611111111111,0.09680397283708378,0.122248676540324
121,164,1790,162,350.9607923648529,3833.721210175748,1.7306944444444445,0.1986865460431553,0.11480163161148528
122,166,649,214,314.5981123532393,5512.699095996556,1.1615,0.1684360327674213,0.14501595589102137
123,167,1724,154,548.3450383255505,4924.144438110589,2.826277777777778,0.3859855038510197,0.1365702645670268
124,171,1341,289,164.96149672949795,8322.513271255766,0.638388888888889,0.09357893586773747,0.1465860974344508
125,172,8566,490,428.8212109171331,6525.415724192786,3.3525833333333335,0.6088210391000549,0.1815975856727563
126,176,999,577,444.4919443720171,4445.432901917367,8.505583333333334,1.0736830890282063,0.12623273994864623
127,178,613,557,511.4292307119999,5144.185282137366,4.732722222222222,0.815549119498189,0.17232135781576732
128,179,1845,480,320.25180530546777,4677.222898903776,0.821,0.13326731025584873,0.16232315500103378
129,182,1217,557,385.78102467782327,5034.288606752325,8.012055555555555,1.2507477743947308,0.15610822537637833
130,183,869,340,559.1152932773185,7141.376757957069,1.5761666666666667,0.24690657163884647,0.15665004016422532
131,184,988,465,280.2663595123746,3730.1857455216264,64.20672222222223,10.517501195564249,0.16380685435339193
132,185,2841,575,325.61366566878536,4802.934573990862,7.337805555555555,0.8732302803334449,0.11900428182814275
133,187,922,276,279.5432879191353,3005.414847161572,2.8625,0.20942076623678638,0.07316009300848433
134,188,1048,216,296.2149121478872,4330.4688464999745,4.722583333333333,0.6619997765961374,0.14017746853158847
135,189,1305,522,289.77840409956724,4963.8564549395605,6.478027777777777,0.6964059065483146,0.10750276634151909
136,192,1176,584,572.0740265486734,4627.135225514204,9.369944444444446,1.0670968418729645,0.11388507671522634
137,195,1706,337,347.13575300306275,7201.632464482347,6.49325,1.1490981991815172,0.17696811291441378
138,196,2374,133,458.565617446094,4737.397542161472,4.832611111111111,0.5447093670382549,0.1127153322529641
139,197,1849,415,333.8337803168574,8218.173012894242,1.3765833333333335,0.19286512458591587,0.140104213029299
140,200,1137,232,420.469648676808,4663.89238902502,5.974194444444445,0.7296097739710518,0.1221268876927055
141,201,1617,575,296.3414771117363,3379.7344555746554,3.7491111111111106,0.38570754077274816,0.10287973051255805
142,202,1158,268,376.11708821429346,7809.151349237387,1.91775,0.29563153060857217,0.15415540639216382
143,203,1187,557,705.8887155700986,6014.831347822447,4.978194444444444,0.8526888572666721,0.17128476333789133
144,204,766,267,180.27131029482402,3555.638583604154,7.8807222222222215,0.9518069425221678,0.12077661357460909
145,205,1262,248,408.5305483079372,6738.734979973297,1.3315555555555556,0.2167516400394114,0.1627807710576354
146,207,3188,624,424.1782504027615,3631.5720581177193,1.2732777777777777,0.19809511414068998,0.15557886707676685
147,208,634,145,426.1890221643003,5013.745504486784,4.7732777777777775,0.5965345218770974,0.12497377057214067
148,209,1277,575,292.9230471818106,5161.224582448458,5.506638888888889,0.7506456461499492,0.13631648293927112
149,211,1217,324,536.9444103504278,5643.5281200439185,1.8215555555555556,0.12712282255651458,0.06978805678959565
150,212,638,531,137.00627157705722,8219.77186311787,1.0227777777777778,0.13275877754998522,0.12980217250949125
151,213,1105,507,578.91558840606,5228.389830508473,2.884444444444445,0.44661663965835635,0.15483627723132537
152,214,1931,133,172.8782819863192,4361.077575799385,2.415916666666667,0.39705285088493025,0.16434873618085483
153,215,1499,483,350.3598683352534,5449.11188427028,10.618611111111111,1.6640967790314147,0.15671510724129786
154,216,1222,488,365.81119514492946,5187.938288920056,1.0298888888888886,0.1468729451657439,0.14261047647984632
155,218,929,340,518.9154177033256,6059.5310032942825,11.400222222222222,1.959315808539785,0.17186645754330387
156,219,3141,624,444.0752639050549,6447.257548758757,5.689861111111111,0.9566395455941371,0.16813056187364922
157,220,1028,413,364.2952135926822,4135.555893963709,7.113916666666666,1.023328823115194,0.14384886287889148
158,221,2803,185,298.17977206103836,4470.7560752530535,6.347472222222223,0.5834655808883839,0.09192093489526372
159,224,1077,156,282.6398582257507,4495.040024939043,4.989944444444444,0.6985026116787465,0.13998204177531967
160,225,1633,202,323.3262167989802,4969.284849881865,1.4460833333333334,0.1583376533732586,0.10949414167458672
161,228,391,283,300.94913598992184,4572.165117085522,8.490944444444445,0.7013212205004203,0.08259637371191247
162,229,2301,268,456.89929917153194,4835.721932520633,2.4130833333333337,0.22634719020457594,0.09379998903390928
163,231,1460,367,390.8825418174498,5012.09231837843,2.639416666666667,0.3056493048709318,0.11580183937268908
164,232,957,299,537.4198473147579,3928.847110865358,10.047222222222222,1.107228032284818,0.11020240299213008
165,234,9945,345,369.1988466962345,5544.910633141472,1.467111111111111,0.15489733176626233,0.10557982322753416
166,235,307,12,272.8035908825374,4897.190694853578,10.259555555555556,0.9850968777019331,0.09601750020920766
167,237,1509,591,765.5004946790567,5972.277977655747,4.400833333333333,0.38616405600919845,0.08774793925601936
168,239,637,584,507.38349131419454,3967.3346605672264,20.94302777777778,2.2205861119150443,0.10602985086384038
169,240,1164,307,872.669928157252,4364.218958611482,1.5604166666666668,0.1859329939015524,0.11915599075132864
170,241,1467,500,560.1872971119597,6114.893617021277,3.603333333333333,0.8250367859602853,0.22896488047001443
171,242,862,483,1016.7397140070714,6828.955619034348,1.1960833333333334,0.17914608644861782,0.14977726171416525
172,243,901,147,755.3404291279768,5363.154157275618,4.498472222222222,0.7534328374923036,0.16748638210332475
173,246,1256,337,373.13555347233796,8792.64797707296,1.7349722222222221,0.3612933628654701,0.20824158348927976
174,247,431,596,230.34979536458036,4869.345256651198,3.118694444444445,0.5870496389324941,0.18823570227543385
175,248,1501,140,320.193225530182,7099.712510595164,3.1788611111111114,0.43995780071283724,0.13840107678031213
176,250,2162,459,364.16942966360415,5210.381902806854,5.466777777777779,0.8080407731220768,0.14780933229199997
177,251,1756,494,673.7363150632748,5697.959183673469,1.77625,0.2968043779479018,0.1670960607729215
178,252,2002,459,416.8742641387481,5127.624460353025,5.083055555555556,0.8249844171856034,0.16230088539636986
179,253,931,276,417.955355743375,5858.080452671943,5.802583333333334,0.6650020840325502,0.11460448662794735
180,254,1119,276,248.64202655800923,2037.0005904349537,2.5405,0.23101746286221037,0.09093385666688067
181,256,1254,484,502.723935053229,2529.703757247105,18.52272222222222,2.6218038639472794,0.14154527787507545
182,258,1527,156,597.3521649360636,6593.218905893295,5.9135,0.945555427040916,0.15989776393690977
